#Wave		#Intensity
4002.114258	4359.817383
4001.416016	4427.827637
4000.717773	4283.959473
4000.018555	4329.789063
3999.320313	4236.071777
3998.621094	4278.316895
3997.921875	4431.423828
3997.223633	4244.757813
3996.524414	4526.537109
3995.824219	4286.291992
3995.125000	4231.988770
3994.425781	4299.209473
3993.725586	4248.494141
3993.026367	4315.690918
3992.326172	4300.709473
3991.625977	4271.446777
3990.925781	4163.634277
3990.225586	4298.636230
3989.525391	4301.515137
3988.825195	4222.302734
3988.125000	4228.761719
3987.423828	4278.034180
3986.723633	4409.341309
3986.022461	4394.365723
3985.321289	4333.032715
3984.620117	4310.942383
3983.918945	4310.249512
3983.217773	4320.250977
3982.516602	4294.608887
3981.814453	4229.777344
3981.113281	4414.365723
3980.411133	4392.282715
3979.708984	4259.793945
3979.006836	4401.554688
3978.304688	4318.955078
3977.602539	4421.500488
3976.900391	4417.230957
3976.198242	4391.609375
3975.495117	4319.738281
3974.792969	4315.486816
3974.089844	4314.793457
3973.386719	4360.335449
3972.683594	4249.399414
3971.980469	4362.490234
3971.277344	4272.918457
3970.574219	4297.111816
3969.870117	4371.049316
3969.166992	4540.896973
3968.462891	4351.882324
3967.759766	4308.559570
3967.055664	4329.175781
3966.351563	4442.107422
3965.647461	4494.647949
3964.943359	4401.633789
3964.238281	4361.886230
3963.534180	4212.145996
3962.829102	4285.977539
3962.125000	4281.741699
3961.419922	4295.241211
3960.714844	4251.996094
3960.009766	4382.504395
3959.304688	4406.616699
3958.599609	4345.650879
3957.893555	4401.657227
3957.188477	4223.778320
3956.482422	4421.500488
3955.777344	4332.232910
3955.071289	4331.537109
3954.365234	4263.559570
3953.659180	4383.254883
3952.953125	4311.750488
3952.246094	4303.979492
3951.540039	4331.599121
3950.833008	4472.436523
3950.126953	4429.265137
3949.419922	4340.124512
3948.712891	4311.134277
3948.005859	4402.379395
3947.298828	4274.395020
3946.591797	4333.802246
3945.884766	4276.556641
3945.176758	4286.471191
3944.469727	4462.443359
3943.761719	4295.692871
3943.053711	4333.855957
3942.345703	4361.412109
3941.637695	4254.783691
3940.929688	4307.056152
3940.221680	4306.364258
3939.513672	4305.672852
3938.804688	4276.752441
3938.095703	4392.493164
3937.387695	4275.378906
3936.678711	4154.775391
3935.969727	4281.059082
3935.260742	4372.043457
3934.551758	4360.765625
3933.841797	4289.571777
3933.132813	4362.889648
3932.422852	4323.430176
3931.713867	4171.246582
3931.003906	4360.789063
3930.293945	4155.819824
3929.583984	4303.047852
3928.874023	4274.190918
3928.164063	4178.459961
3927.453125	4290.416992
3926.743164	4198.232422
3926.032227	4260.891602
3925.322266	4267.243164
3924.611328	4118.829102
3923.900391	4290.490723
3923.189453	4314.416016
3922.478516	4369.974121
3921.766602	4460.665039
3921.055664	4305.309570
3920.344727	4258.936523
3919.632813	4279.333496
3918.920898	4271.620605
3918.208984	4306.058105
3917.497070	4263.226074
3916.785156	4308.187012
3916.073242	4300.474121
3915.361328	4475.285156
3914.648438	4379.811523
3913.936523	4273.841309
3913.223633	4259.122070
3912.510742	4335.609375
3911.797852	4299.841309
3911.084961	4218.498535
3910.372070	4242.363770
3909.659180	4185.594727
3908.945313	4353.161133
3908.232422	4215.791016
3907.518555	4404.321289
3906.804688	4424.634277
3906.091797	4353.869629
3905.377930	4384.690430
3904.663086	4222.913574
3903.949219	4341.270996
3903.235352	4249.562012
3902.520508	4402.875977
3901.806641	4164.213867
3901.091797	4527.418945
3900.376953	4253.831055
3899.662109	4386.059570
3898.947266	4371.367188
3898.232422	4360.176270
3897.517578	4188.173828
3896.802734	4460.144043
3896.086914	4351.087891
3895.372070	4388.826660
3894.656250	4283.310547
3893.940430	4226.732422
3893.224609	4425.132813
3892.508789	4169.503418
3891.792969	4305.002441
3891.076172	4293.838867
3890.360352	4254.755859
3889.643555	4299.440430
3888.927734	4145.223633
3888.210938	4266.662598
3887.494141	4325.276367
3886.777344	4192.054688
3886.060547	4292.505371
3885.342773	4420.814941
3884.625977	4130.776855
3883.909180	4311.351563
3883.191406	4258.388184
3882.473633	4445.852051
3881.755859	4316.243652
3881.038086	4270.270996
3880.320313	4328.789063
3879.602539	4164.441895
3878.884766	4233.401855
3878.166016	4309.301758
3877.448242	4235.523926
3876.729492	4092.175049
3876.010742	4275.915039
3875.291992	4379.587891
3874.573242	4319.758301
3873.854492	4322.542480
3873.135742	4217.540527
3872.416016	4258.580566
3871.697266	4285.704102
3870.977539	4243.313477
3870.257813	4207.885254
3869.539063	4307.960938
3868.819336	4359.374023
3868.099609	4296.159668
3867.378906	4281.580566
3866.659180	4398.939453
3865.938477	4339.220703
3865.218750	4536.361328
3864.498047	4424.584961
3863.777344	4361.420410
3863.056641	4357.251953
3862.335938	4346.146973
3861.615234	4331.577637
3860.894531	4143.639160
3860.173828	4378.725098
3859.452148	4454.282715
3858.730469	4363.457520
3858.009766	4321.174316
3857.288086	4344.734375
3856.566406	4458.354004
3855.844727	4398.757813
3855.122070	4387.663086
3854.400391	4279.622559
3853.678711	4400.103516
3852.956055	4364.784180
3852.233398	4298.328613
3851.510742	4463.731445
3850.788086	4328.086914
3850.065430	4306.638184
3849.342773	4323.240234
3848.620117	4339.836914
3847.896484	4311.480957
3847.173828	4334.988281
3846.450195	4410.333008
3845.727539	4274.848633
3845.003906	4122.131348
3844.280273	4418.575684
3843.555664	4300.425781
3842.832031	4296.282227
3842.108398	4247.250488
3841.383789	4322.524414
3840.660156	4342.542969
3839.935547	4366.005859
3839.210938	4361.854980
3838.486328	4257.646973
3837.761719	4398.402832
3837.037109	4352.858398
3836.312500	4328.020020
3835.586914	4248.020508
3834.862305	4161.151367
3834.136719	4477.604492
3833.411133	4325.244629
3832.685547	4283.200684
3831.959961	4244.615234
3831.234375	4423.061523
3830.508789	4250.142578
3829.782227	4493.959961
3829.056641	4417.491211
3828.330078	4337.604492
3827.603516	4509.008301
3826.876953	4480.753906
3826.150391	4397.454102
3825.423828	4193.769043
3824.697266	4382.284668
3823.970703	4230.255859
3823.243164	4184.874512
3822.516602	4352.671875
3821.789063	4269.472168
3821.061523	4378.772461
3820.333984	4288.721680
3819.606445	4370.496094
3818.878906	4380.101563
3818.151367	4283.224121
3817.422852	4327.183105
3816.695313	4408.898438
3815.966797	4360.126953
3815.238281	4352.562988
3814.509766	4489.147949
3813.781250	4337.440918
3813.052734	4264.695313
3812.324219	4346.341797
3811.595703	4390.232910
3810.866211	4372.382324
3810.136719	4364.823730
3809.408203	4398.406250
3808.678711	4284.587891
3807.949219	4458.684082
3807.219727	4204.402832
3806.489258	4231.137207
3805.759766	4281.840820
3805.030273	4305.128906
3804.299805	4362.652832
3803.569336	4437.277832
3802.839844	4368.100586
3802.109375	4285.254883
3801.378906	4264.035156
3800.647461	4300.989258
3799.916992	4375.563477
3799.186523	4316.712891
3798.455078	4391.260742
3797.723633	4342.684570
3796.993164	4427.460449
3796.261719	4221.650391
3795.530273	4402.116699
3794.798828	4363.821289
3794.066406	4434.872070
3793.334961	4413.664551
3792.602539	4293.410645
3791.871094	4296.137695
3791.138672	4370.567871
3790.406250	4339.141602
3789.673828	4287.245117
3788.941406	4344.576172
3788.208984	4282.458008
3787.476563	4517.183594
3786.743164	4274.262695
3786.010742	4242.881348
3785.277344	4368.375977
3784.543945	4347.218262
3783.810547	4479.474121
3783.077148	4342.416504
3782.343750	4259.929688
3781.610352	4347.838867
3780.875977	4302.853027
3780.142578	4452.040527
3779.408203	4366.183105
3778.673828	4351.862305
3777.939453	4439.686035
3777.205078	4364.083984
3776.470703	4353.173828
3775.736328	4338.863770
3775.000977	4430.035156
3774.266602	4422.521484
3773.531250	4292.559570
3772.795898	4349.686035
3772.061523	4471.399414
3771.326172	4280.296387
3770.589844	4514.156250
3769.854492	4431.864258
3769.119141	4298.627441
3768.382813	4393.070313
3767.647461	4473.895020
3766.911133	4327.128906
3766.174805	4404.542480
3765.438477	4359.696289
3764.702148	4501.581543
3763.965820	4453.339355
3763.229492	4452.625488
3762.492188	4451.912109
3761.755859	4403.700684
3761.018555	4470.837891
3760.281250	4422.639160
3759.543945	4357.500000
3758.806641	4492.421875
3758.069336	4464.582520
3757.332031	4457.087891
3756.593750	4395.374023
3755.856445	4591.192871
3755.118164	4427.842773
3754.379883	4447.456543
3753.641602	4379.009766
3752.903320	4551.002441
3752.165039	4431.776367
3751.426758	4536.003418
3750.688477	4389.741211
3749.949219	4439.797852
3749.210938	4486.454590
3748.471680	4424.843262
3747.732422	4393.692871
3746.993164	4480.916016
3746.253906	4409.190918
3745.514648	4557.236816
3744.774414	4485.522461
3744.035156	4430.729004
3743.294922	4528.013184
3742.554688	4314.437500
3741.815430	4269.831543
3741.075195	4394.114746
3740.334961	4396.787109
3739.593750	4453.481445
3738.853516	4510.157715
3738.113281	4479.057129
3737.372070	4410.843262
3736.630859	4470.873047
3735.890625	4520.762207
3735.149414	4361.499023
3734.408203	4377.663086
3733.666016	4565.798340
3732.924805	4453.805664
3732.183594	4648.609863
3731.441406	4492.823730
3730.699219	4232.620117
3729.958008	4612.681641
3729.215820	4507.508301
3728.473633	4419.210449
3727.731445	4452.179688
3726.988281	4390.856445
3726.246094	4575.320313
3725.502930	4524.094727
3724.760742	4466.154785
3724.017578	4532.740234
3723.274414	4585.846191
3722.531250	4346.268555
3721.788086	4513.744141
3721.044922	4576.916016
3720.300781	4539.196777
3719.557617	4471.232910
3718.813477	4406.651855
3718.070313	4641.198242
3717.326172	4432.121582
3716.582031	4612.833496
3715.837891	4612.094727
3715.092773	4510.597656
3714.348633	4664.345703
3713.604492	4539.369629
3712.859375	4518.500488
3712.114258	4480.855469
3711.369141	4436.510742
3710.624023	4573.370117
3709.878906	4612.895020
3709.133789	4545.070313
3708.388672	4557.756836
3707.642578	4630.797363
3706.897461	4532.827637
3706.151367	4485.171387
3705.405273	4725.768555
3704.659180	4664.691895
3703.913086	4653.893066
3703.166992	4539.247070
3702.420898	4578.713379
3701.673828	4678.447754
3700.927734	4717.878418
3700.180664	4546.382324
3699.433594	4736.450684
3698.687500	4621.901367
3697.940430	4621.160645
3697.192383	4613.729004
3696.445313	4813.699707
3695.698242	4552.047363
3694.950195	4521.220703
3694.202148	4734.484375
3693.455078	4620.062988
3692.707031	4739.652344
3691.958984	4615.240723
3691.210938	4664.622559
3690.461914	4807.533203
3689.713867	4726.594727
3688.964844	4745.875977
3688.216797	4741.776367
3687.467773	4654.209473
3686.718750	4603.390625
3685.969727	4852.978516
3685.220703	4722.052246
3684.471680	4851.423340
3683.721680	4747.228027
3682.972656	4803.171387
3682.222656	4745.707031
3681.473633	4761.619141
3680.723633	4930.886719
3679.973633	4890.095703
3679.223633	4882.646484
3678.472656	4795.223633
3677.722656	4914.399902
3676.972656	4790.355957
3676.221680	4999.424316
3675.470703	4838.773926
3674.719727	4994.492676
3673.968750	5123.528809
3673.217773	5016.192871
3672.466797	5051.998047
3671.715820	4918.087402
3670.963867	5070.341309
3670.212891	4906.532227
3669.460938	5015.501465
3668.708984	5167.666504
3667.957031	5033.843750
3667.205078	4996.469727
3666.453125	4912.574219
3665.701172	5117.829590
3664.948242	5040.586914
3664.196289	5053.068359
3663.443359	5128.656738
3662.690430	5141.119629
3661.937500	5226.631836
3661.184570	5122.872070
3660.431641	5178.483887
3659.678711	5167.697266
3658.924805	5379.251465
3658.171875	5146.133789
3657.417969	5171.848633
3656.664063	5161.069336
3655.910156	5200.038574
3655.156250	5364.996582
3654.402344	5330.983887
3653.648438	5369.907227
3652.893555	5425.388672
3652.139648	5437.774414
3651.384766	5400.458496
3650.629883	5608.289063
3649.875000	5305.989258
3649.120117	5460.783203
3648.365234	5456.597168
3647.610352	5502.069824
3646.854492	5617.038086
3646.099609	5543.330078
3645.343750	5595.384766
3644.587891	5700.356934
3643.832031	5623.362793
3643.076172	5576.159180
3642.320313	5618.254395
3641.564453	5577.679199
3640.808594	5543.728027
3640.051758	5605.638672
3639.294922	5528.733398
3638.539063	5550.976563
3637.782227	5669.017578
3637.025391	5740.777344
3636.267578	5815.816895
3635.510742	5765.354492
3634.753906	5853.571777
3633.996094	5747.002441
3633.239258	5742.781250
3632.481445	5896.957520
3631.723633	5948.803223
3630.965820	5928.057129
3630.208008	5874.333984
3629.449219	6067.963379
3628.691406	5928.505371
3627.933594	5848.434082
3627.174805	6065.047363
3626.416016	5955.317871
3625.657227	6102.646484
3624.898438	6128.025879
3624.139648	5889.868164
3623.380859	6083.246094
3622.621094	6148.132324
3621.862305	6064.834473
3621.102539	6047.402832
3620.342773	6112.263184
3619.583984	6038.883301
3618.824219	6001.721191
3618.063477	6059.978027
3617.303711	6266.236816
3616.543945	6189.589844
3615.783203	6366.166992
3615.023438	6072.534668
3614.262695	6203.051758
3613.501953	6248.072266
3612.741211	6279.933594
3611.980469	6328.212402
3611.219727	6432.323730
3610.458008	6178.376953
3609.697266	6200.375977
3608.935547	6350.426758
3608.173828	6408.504395
3607.412109	6312.284668
3606.650391	6504.911133
3605.888672	6398.861816
3605.126953	6256.756348
3604.365234	6442.737793
3603.602539	6494.183594
3602.839844	6378.365723
3602.078125	6429.805176
3601.315430	6353.374023
3600.552734	6273.688965
3599.790039	6387.388184
3599.026367	6537.095215
3598.263672	6427.932617
3597.500000	6410.524414
3596.737305	6448.799316
3595.973633	6513.259277
3595.209961	6535.134766
3594.446289	6517.719727
3593.682617	6421.756836
3592.918945	6410.910156
3592.154297	6383.707031
3591.390625	6507.000977
3590.625977	6519.042480
3589.861328	6547.432129
3589.096680	6510.414063
3588.332031	6336.093262
3587.567383	6616.201172
3586.802734	6487.675781
3586.038086	6489.904297
3585.272461	6462.726074
3584.506836	6380.020996
3583.742188	6512.915527
3582.976563	6498.809082
3582.210938	6687.150391
3581.445313	6421.639160
3580.678711	6414.082031
3579.913086	6396.736328
3579.146484	6418.553711
3578.380859	6564.341797
3577.614258	6341.469238
3576.847656	6516.577148
3576.081055	6567.709473
3575.314453	6573.178711
3574.547852	6461.286133
3573.780273	6430.915527
3573.013672	6452.698242
3572.246094	6425.597168
3571.478516	6486.467773
3570.710938	6615.723145
3569.943359	6536.499023
3569.175781	6414.967773
3568.408203	6501.846680
3567.639648	6334.785645
3566.872070	6603.916016
3566.103516	6521.501953
3565.334961	6289.442871
3564.567383	6418.563477
3563.798828	6329.712891
3563.029297	6374.229004
3562.260742	6542.292969
3561.492188	6492.478027
3560.722656	6449.180176
3559.953125	6357.145020
3559.184570	6343.127930
3558.415039	6299.874512
3557.645508	6337.847168
3556.875000	6099.728516
3556.105469	6465.715820
3555.335938	6415.975586
3554.565430	6187.697266
3553.794922	6176.968262
3553.025391	6276.585938
3552.254883	6301.539063
3551.484375	6271.330566
3550.712891	6286.544922
3549.942383	6146.075195
3549.171875	6342.900879
3548.400391	6244.616699
3547.628906	6405.704102
3546.858398	6216.686035
3546.086914	6180.041992
3545.315430	6253.576660
3544.542969	6353.004883
3543.771484	6190.028809
3543.000000	6117.787109
3542.227539	6042.330566
3541.455078	6316.558105
3540.682617	6147.218262
3539.911133	6152.706543
3539.137695	6290.870605
3538.365234	6060.140137
3537.592773	6117.399414
3536.819336	6100.247070
3536.046875	6341.817383
3535.273438	6091.825684
3534.500000	6161.974121
3533.726563	6186.846191
3532.953125	6075.970215
3532.179688	6323.812988
3531.406250	6235.566895
3530.631836	6144.118164
3529.857422	6107.605469
3529.083984	6297.156250
3528.309570	6218.656250
3527.535156	6111.126953
3526.760742	6058.503418
3525.985352	6086.578125
3525.210938	5956.533691
3524.436523	6007.198730
3523.661133	6073.976074
3522.885742	6118.155273
3522.110352	6059.131348
3521.334961	6013.022461
3520.559570	6044.295410
3519.784180	5978.864746
3519.008789	6097.142578
3518.232422	5960.838379
3517.456055	6088.745605
3516.680664	6065.223145
3515.904297	6025.604980
3515.127930	6053.619629
3514.351563	6049.430176
3513.574219	6070.993652
3512.797852	5999.214844
3512.020508	5924.240723
3511.244141	5990.857422
3510.466797	5944.860840
3509.689453	5940.691895
3508.912109	5766.082031
3508.134766	5896.988281
3507.356445	5924.977539
3506.579102	5930.456543
3505.800781	5955.216797
3505.023438	5803.237305
3504.245117	5972.585449
3503.466797	6035.874023
3502.688477	5989.942383
3501.910156	6155.967773
3501.130859	5943.072754
3500.352539	5865.075195
3499.573242	5893.022461
3498.794922	5888.869141
3498.015625	5807.708496
3497.236328	5976.810547
3496.457031	6004.722168
3495.677734	5686.253418
3494.897461	5916.218750
3494.118164	5835.118164
3493.337891	5939.967773
3492.557617	5862.094238
3491.777344	5768.222168
3490.998047	5863.419922
3490.216797	5891.312012
3489.436523	5925.601074
3488.656250	5931.056641
3487.875000	5910.894531
3487.094727	5855.521973
3486.313477	5860.985840
3485.532227	6016.869141
3484.750977	5923.106445
3483.969727	5854.969238
3483.188477	5892.417969
3482.406250	5872.283203
3481.625000	5973.675293
3480.842773	5768.084961
3480.060547	5808.720215
3479.278320	5699.113281
3478.496094	5701.395508
3477.713867	5700.481934
3476.931641	5964.739258
3476.148438	5759.347168
3475.366211	5873.401367
3474.583008	5712.795410
3473.799805	5721.458496
3473.016602	5733.310547
3472.233398	5751.542480
3471.450195	5891.035156
3470.666992	5730.554688
3469.882813	5831.723633
3469.099609	5808.460938
3468.315430	5743.746094
3467.531250	5723.693359
3466.747070	5748.281738
3465.962891	5699.545410
3465.178711	5835.679688
3464.394531	5850.677734
3463.609375	5808.320313
3462.825195	5660.851074
3462.040039	5809.644043
3461.254883	5665.405762
3460.469727	5766.389160
3459.684570	5755.914063
3458.899414	5643.583984
3458.113281	5709.513672
3457.328125	5629.047363
3456.541992	5745.862305
3455.755859	5843.553223
3454.969727	5642.244141
3454.183594	5685.859863
3453.397461	5669.051270
3452.611328	5734.901367
3451.824219	5727.625488
3451.038086	5669.503906
3450.250977	5697.192383
3449.463867	5759.818359
3448.676758	5714.425293
3447.889648	5688.101563
3447.102539	5725.295410
3446.315430	5740.252441
3445.527344	5774.250977
3444.740234	5728.890625
3443.952148	5816.827637
3443.164063	5749.264648
3442.375977	5726.136719
3441.587891	5763.281250
3440.799805	5648.188477
3440.011719	5723.383789
3439.222656	5846.109863
3438.434570	5620.114746
3437.645508	5688.938965
3436.856445	5615.144531
3436.067383	5772.660156
3435.278320	5584.834473
3434.489258	5596.608398
3433.699219	5630.545898
3432.910156	5604.313477
3432.120117	5384.977051
3431.330078	5574.029785
3430.540039	5734.538574
3429.750000	5546.928711
3428.959961	5644.115723
3428.169922	5602.088867
3427.378906	5673.934082
3426.588867	5663.537598
3425.797852	5539.323242
3425.006836	5528.951660
3424.215820	5426.922852
3423.424805	5533.499512
3422.633789	5557.890137
3421.842773	5888.713379
3421.050781	5619.282227
3420.259766	5545.743652
3419.467773	5500.647461
3418.675781	5638.680176
3417.883789	5419.967773
3417.091797	5561.125488
3416.299805	5588.634766
3415.506836	5581.428711
3414.714844	5580.533691
3413.921875	5421.933105
3413.128906	5521.979980
3412.336914	5527.400879
3411.543945	5539.125488
3410.750000	5487.803711
3409.957031	5597.229980
3409.164063	5369.454102
3408.370117	5551.327148
3407.576172	5528.386719
3406.783203	5489.705566
3405.989258	5454.186035
3405.195313	5453.311523
3404.400391	5364.291504
3403.606445	5420.087891
3402.812500	5438.101074
3402.017578	5500.160156
3401.222656	5389.166992
3400.427734	5466.941406
3399.633789	5503.805664
3398.837891	5383.431152
3398.042969	5398.288086
3397.248047	5488.584961
3396.452148	5409.129395
3395.657227	5530.820313
3394.861328	5454.525391
3394.065430	5453.650879
3393.269531	5468.481445
3392.473633	5363.968750
3391.677734	5312.868652
3390.880859	5456.433594
3390.084961	5264.080566
3389.288086	5395.052734
3388.491211	5472.637207
3387.694336	5430.972656
3386.897461	5304.623047
3386.100586	5523.325684
3385.302734	5506.760254
3384.505859	5349.104004
3383.708008	5426.620605
3382.911133	5500.977539
3382.113281	5390.406738
3381.315430	5436.544434
3380.517578	5269.626465
3379.718750	5390.946777
3378.920898	5339.971191
3378.123047	5226.383301
3377.324219	5438.449219
3376.525391	5218.446289
3375.726563	5486.784668
3374.927734	5310.656250
3374.128906	5416.188477
3373.330078	5487.273926
3372.530273	5417.579590
3371.731445	5294.741211
3370.931641	5237.607422
3370.131836	5393.088867
3369.332031	5323.454102
3368.532227	5356.979980
3367.732422	5596.740234
3366.932617	5367.759766
3366.131836	5379.394531
3365.332031	5309.816895
3364.531250	5327.703125
3363.730469	5339.338379
3362.929688	5385.311035
3362.128906	5384.447266
3361.327148	5383.583984
3360.526367	5170.532227
3359.725586	5275.780273
3358.923828	5409.069336
3358.122070	5242.898926
3357.320313	5341.847656
3356.518555	5263.042969
3355.716797	5290.255859
3354.915039	5426.551758
3354.112305	5216.881836
3353.310547	5287.711426
3352.507813	5367.864258
3351.705078	5329.624023
3350.902344	5338.112793
3350.099609	5268.750488
3349.296875	5314.606934
3348.493164	5282.625488
3347.690430	5362.701172
3346.886719	5252.923828
3346.083008	5220.966797
3345.279297	5350.788574
3344.475586	5346.819824
3343.671875	5314.863281
3342.868164	5373.089844
3342.063477	5216.781738
3341.259766	5411.775879
3340.455078	5289.698730
3339.650391	5236.023926
3338.845703	5216.542480
3338.041016	5352.389160
3337.236328	5342.212891
3336.431641	5232.665527
3335.625977	5275.295410
3334.821289	5348.956055
3334.015625	5292.227051
3333.209961	5170.343750
3332.404297	5296.735352
3331.598633	5314.500488
3330.791992	5205.079590
3329.986328	5204.245117
3329.180664	5191.006348
3328.374023	5264.584961
3327.567383	5207.940918
3326.760742	5396.172852
3325.954102	5314.734375
3325.147461	5171.352051
3324.339844	5232.481934
3323.533203	5318.372070
3322.725586	5153.378906
3321.918945	5294.990723
3321.111328	5405.596680
3320.303711	5284.005371
3319.496094	5211.973145
3318.687500	5195.664551
3317.879883	5358.812988
3317.071289	5206.371582
3316.263672	5221.001465
3315.455078	5297.476563
3314.646484	5299.719238
3313.837891	5045.363770
3313.029297	5149.649414
3312.219727	5275.535156
3311.411133	5172.717773
3310.601563	5137.902832
3309.792969	5158.702148
3308.983398	5315.390137
3308.173828	5129.254395
3307.364258	5171.657227
3306.553711	5133.782715
3305.744141	5163.824707
3304.933594	5261.750488
3304.124023	5088.114258
3303.313477	5340.274414
3302.502930	5185.188477
3301.692383	5156.599609
3300.881836	5103.351563
3300.070313	5176.526855
3299.259766	5169.531250
3298.448242	5091.648926
3297.637695	5177.117188
3296.826172	5117.745605
3296.014648	5033.747070
3295.203125	5116.103027
3294.390625	5269.264160
3293.579102	5163.728027
3292.766602	5150.584961
3291.955078	5094.351563
3291.142578	5059.679688
3290.330078	5221.958008
3289.517578	5236.503418
3288.705078	5066.473145
3287.891602	5164.082031
3287.079102	5027.944824
3286.265625	5054.810547
3285.453125	5007.886230
3284.639648	5034.746094
3283.826172	5086.183105
3283.012695	5100.730469
3282.198242	5121.417480
3281.384766	5175.887207
3280.570313	5015.351563
3279.756836	5082.103516
3278.942383	5099.709473
3278.127930	5062.053711
3277.313477	5015.202148
3276.499023	4949.953125
3275.683594	5105.641602
3274.869141	5169.246094
3274.053711	4975.175781
3273.238281	5127.718262
3272.423828	4964.380371
3271.608398	5064.755859
3270.791992	4968.917480
3269.976563	4943.601563
3269.161133	4991.837891
3268.344727	5067.633301
3267.528320	5115.833984
3266.712891	4860.793457
3265.896484	5147.877930
3265.080078	5042.947266
3264.262695	5173.778320
3263.446289	5166.826172
3262.629883	5012.975586
3261.812500	5088.669434
3260.995117	4980.772461
3260.177734	5083.977051
3259.360352	5061.751953
3258.542969	5180.200195
3257.725586	4992.862793
3256.907227	4961.491211
3256.089844	4988.203613
3255.271484	5057.690918
3254.453125	5011.046387
3253.634766	5098.837891
3252.816406	4975.837891
3251.998047	4959.769043
3251.179688	4971.187012
3250.360352	4906.274414
3249.541992	5036.747559
3248.722656	5051.199707
3247.903320	5206.020020
3247.083984	5009.913574
3246.264648	5131.134277
3245.444336	5154.711426
3244.625000	4986.153809
3243.804688	5031.090820
3242.985352	5222.348145
3242.165039	5114.824219
3241.344727	5068.288086
3240.524414	5027.860840
3239.703125	5057.520508
3238.882813	5212.065430
3238.061523	4976.708008
3237.241211	4896.732910
3236.419922	5154.750000
3235.598633	5257.427246
3234.777344	4952.206543
3233.956055	4981.844238
3233.134766	4981.044434
3232.312500	4955.906250
3231.490234	5131.535645
3230.668945	5045.554688
3229.846680	5075.152832
3229.024414	5022.652344
3228.202148	5122.161133
3227.378906	4945.055176
3226.556641	5181.293945
3225.733398	5061.964844
3224.911133	5015.583496
3224.087891	5060.339355
3223.264648	4935.012695
3222.441406	5034.422852
3221.618164	4930.391602
3220.793945	5120.834473
3219.970703	5074.487793
3219.146484	5179.879883
3218.322266	5139.605957
3217.498047	5017.439941
3216.673828	5116.724609
3215.849609	5182.618652
3215.025391	5118.113281
3214.201172	5041.501953
3213.375977	4970.977539
3212.550781	5127.770508
3211.725586	5214.820313
3210.900391	5141.271484
3210.075195	4922.348145
3209.250000	5085.104980
3208.424805	5014.640137
3207.598633	4968.419922
3206.772461	5064.492188
3205.947266	5133.292969
3205.121094	5077.996582
3204.294922	5068.104004
3203.467773	5088.466309
3202.641602	5123.946289
3201.815430	5101.953613
3200.988281	5234.180664
3200.161133	5030.778809
3199.333984	5026.947754
3198.506836	4998.939453
3197.679688	5137.141602
3196.852539	5100.060059
3196.024414	5126.428711
3195.197266	5065.197754
3194.369141	5142.901367
3193.541016	5111.881348
3192.712891	4984.264648
3191.884766	5200.792969
3191.056641	5100.364258
3190.227539	5033.160645
3189.399414	5044.419922
3188.570313	5007.411621
3187.741211	5082.007813
3186.913086	5081.191406
3186.083008	4995.953613
3185.253906	4986.107422
3184.424805	5172.180176
3183.594727	5126.145020
3182.765625	5113.269043
3181.935547	5142.574219
3181.105469	5066.443848
3180.275391	5050.571777
3179.445313	4944.368652
3178.615234	5166.366211
3177.784180	4993.954102
3176.954102	5119.560547
3176.123047	5082.626953
3175.291992	4946.416016
3174.460938	4942.612793
3173.629883	5001.974609
3172.798828	4965.083496
3171.966797	4994.354004
3171.135742	5113.805664
3170.303711	5131.019043
3169.471680	4955.882324
3168.639648	5006.169434
3167.807617	5065.453613
3166.975586	5133.729980
3166.143555	5144.918945
3165.310547	4918.869141
3164.478516	4963.116211
3163.645508	5076.395020
3162.812500	5108.596191
3161.979492	4987.733398
3161.146484	5178.967773
3160.312500	4974.130371
3159.479492	5018.325195
3158.645508	5146.480469
3157.812500	4986.726074
3156.978516	5033.895020
3156.144531	4970.135254
3155.310547	5245.077637
3154.475586	4944.563965
3153.641602	5003.693848
3152.807617	5074.787598
3151.972656	4993.100098
3151.137695	5186.958008
3150.302734	5048.386719
3149.467773	4987.699219
3148.632813	5052.750977
3147.796875	4896.310547
3146.961914	4958.363281
3146.125977	5011.420410
3145.290039	4893.950195
3144.455078	4911.108887
3143.618164	5047.880371
3142.782227	5154.708008
3141.946289	5097.079102
3141.109375	4949.798340
3140.273438	5032.681641
3139.436523	5175.298828
3138.599609	5099.777832
3137.762695	5036.229492
3136.925781	4906.995605
3136.088867	5007.735352
3135.250977	5036.786621
3134.414063	4970.303223
3133.576172	5062.029785
3132.738281	5055.247559
3131.900391	4851.541504
3131.062500	5086.437988
3130.224609	5094.568848
3129.385742	5123.572754
3128.547852	5024.349121
3127.708984	4922.176270
3126.870117	4995.906250
3126.031250	4837.143555
3125.192383	4821.466309
3124.353516	4921.991211
3123.514648	5070.146484
3122.674805	4890.624023
3121.835938	5077.450684
3120.996094	4972.421875
3120.156250	5031.162598
3119.316406	5009.518066
3118.476563	4955.143555
3117.635742	4927.566406
3116.795898	5060.653809
3115.955078	5030.093750
3115.114258	4966.828125
3114.274414	4995.766113
3113.433594	5081.185547
3112.591797	4988.214355
3111.750977	4984.439941
3110.910156	5102.508789
3110.068359	4935.296387
3109.226563	5160.283691
3108.384766	5007.967773
3107.542969	4932.916016
3106.701172	4955.877930
3105.859375	4958.049805
3105.017578	4986.936523
3104.174805	5006.910156
3103.332031	5074.356445
3102.490234	5106.177246
3101.647461	5016.360840
3100.803711	4944.369629
3099.960938	4896.125488
3099.118164	5067.312500
3098.274414	5066.497559
3097.431641	4979.723145
3096.587891	4975.958496
3095.744141	4907.005371
3094.900391	5015.835938
3094.056641	4988.369141
3093.211914	5002.375488
3092.368164	5031.183594
3091.523438	4980.041016
3090.678711	4979.239746
3089.833984	5108.671387
3088.989258	4968.760254
3088.144531	4914.701172
3087.299805	5041.122070
3086.454102	4868.750977
3085.609375	5004.010742
3084.763672	5074.173340
3083.917969	5017.183594
3083.072266	4921.783691
3082.226563	5133.791504
3081.380859	5044.313477
3080.534180	4875.089844
3079.688477	5154.947266
3078.841797	5018.250000
3077.995117	4982.004883
3077.148438	4978.250488
3076.301758	4897.739746
3075.455078	5006.166504
3074.607422	4825.333008
3073.760742	4983.899902
3072.913086	4868.035645
3072.065430	4840.703613
3071.217773	4916.608398
3070.370117	4960.051270
3069.522461	4920.923340
3068.673828	5043.945801
3067.826172	4813.230957
3066.977539	5325.234863
3066.128906	5038.564941
3065.280273	5058.376465
3064.431641	5048.725586
3063.583008	4897.712891
3062.734375	5029.433594
3061.884766	4778.370605
3061.035156	4986.603027
3060.186523	5094.699707
3059.336914	4899.659180
3058.487305	4887.101563
3057.636719	4909.849609
3056.787109	4885.528809
3055.937500	4955.322754
3055.086914	5039.795898
3054.236328	5000.766602
3053.385742	4885.324219
3052.535156	5013.851563
3051.684570	4833.797363
3050.833984	4935.849609
3049.982422	5040.806641
3049.130859	4940.135254
3048.280273	4818.939941
3047.428711	4873.950684
3046.577148	4940.686035
3045.725586	4960.437012
3044.873047	4971.377441
3044.021484	4859.076660
3043.168945	4949.240723
3042.316406	4819.379883
3041.464844	4762.880859
3040.612305	4885.271973
3039.758789	4922.600098
3038.906250	5030.269043
3038.053711	4906.360840
3037.200195	5031.580078
3036.346680	4975.100586
3035.493164	5012.383301
3034.639648	4929.563477
3033.786133	5004.912598
3032.932617	4986.538086
3032.079102	5003.301270
3031.224609	4955.661621
3030.370117	4910.963379
3029.515625	4807.755371
3028.661133	4979.600098
3027.806641	5028.527832
3026.952148	4966.297363
3026.097656	5064.924805
3025.242188	4917.916992
3024.386719	4756.338867
3023.532227	4916.333008
3022.676758	4807.411621
3021.820313	4970.267578
3020.964844	4861.372070
3020.109375	4840.142090
3019.252930	4932.820313
3018.397461	5098.471191
3017.541016	4791.090332
3016.684570	4962.548340
3015.828125	4950.074707
3014.970703	4820.876465
3014.114258	4893.043457
3013.256836	4912.676270
3012.400391	4999.389160
3011.542969	4911.094238
3010.685547	4989.031738
3009.828125	4889.104980
3008.970703	4856.253418
3008.112305	4817.583496
3007.254883	5032.441895
3006.396484	4979.188477
3005.538086	4960.908203
3004.679688	4834.868652
3003.821289	4973.870605
3002.962891	4923.571777
3002.104492	4954.801758
3001.245117	4997.664063
3000.385742	4836.796875
2999.527344	4920.400391
2998.667969	4878.877930
2997.808594	4857.730469
2996.948242	4880.214844
2996.088867	4989.928223
2995.229492	5009.476074
2994.369141	4898.205566
2993.508789	4792.783203
2992.648438	4916.969238
2991.788086	5029.493652
2990.927734	4813.708008
2990.067383	5033.682617
2989.206055	4867.335449
2988.344727	4770.730469
2987.484375	4813.509766
2986.623047	4969.481934
2985.761719	5012.215332
2984.899414	4875.023438
2984.038086	4958.376465
2983.176758	4974.982910
2982.314453	4881.368652
2981.452148	4779.084473
2980.589844	4902.991211
2979.727539	4934.090332
2978.865234	4811.557129
2978.002930	4973.073242
2977.139648	4934.603027
2976.276367	4867.174316
2975.414063	4886.666504
2974.550781	4900.359863
2973.687500	4914.048828
2972.824219	4965.371582
2971.959961	4915.360352
2971.096680	4986.926270
2970.232422	5046.893555
2969.368164	4849.329590
2968.503906	4990.301758
2967.639648	4957.680176
2966.775391	4907.717285
2965.911133	4935.841797
2965.045898	4900.353516
2964.181641	4954.484863
2963.316406	4765.828125
2962.451172	4984.674316
2961.585938	5018.541504
2960.720703	5009.066406
2959.854492	4930.275879
2958.989258	5056.544434
2958.123047	4908.475098
2957.256836	4988.516602
2956.391602	4788.550293
2955.524414	4932.075195
2954.658203	5014.958984
2953.791992	4872.785156
2952.924805	4990.266113
2952.058594	4836.605469
2951.191406	5037.678711
2950.324219	4866.760742
2949.457031	5030.289551
2948.589844	5015.067383
2947.722656	4933.569824
2946.854492	4840.572754
2945.986328	5012.642090
2945.119141	4939.825195
2944.250977	4927.508789
2943.382813	5013.097656
2942.513672	4923.041016
2941.645508	4976.938965
2940.777344	5088.380371
2939.908203	4891.884766
2939.039063	4942.883789
2938.169922	4930.580078
2937.300781	5018.947266
2936.431641	5052.646484
2935.562500	5057.582520
2934.692383	5013.645020
2933.822266	5035.831055
2932.953125	4940.181152
2932.083008	4965.245117
2931.212891	4984.555176
2930.341797	4952.154297
2929.471680	4962.843750
2928.601563	5033.832031
2927.730469	5124.895020
2926.859375	5078.138672
2925.988281	4910.850098
2925.117188	4976.061035
2924.246094	5127.328125
2923.375000	4980.193848
2922.502930	4985.126953
2921.630859	5030.208496
2920.759766	4940.508301
2919.887695	4971.247559
2919.015625	5036.374512
2918.142578	5044.160156
2917.270508	5074.867676
2916.397461	4965.175781
2915.525391	5156.304199
2914.652344	4903.427246
2913.779297	5108.821777
2912.906250	5107.997559
2912.033203	4949.721680
2911.159180	4946.060547
2910.286133	5011.085449
2909.412109	4958.771973
2908.538086	5040.938477
2907.664063	5063.008789
2906.790039	4962.092285
2905.916016	4995.606445
2905.041992	5003.377441
2904.166992	5022.580566
2903.291992	5067.500488
2902.417969	4972.379395
2901.542969	5188.726074
2900.666992	4896.499023
2899.791992	5015.673828
2898.916992	4943.468262
2898.041016	5022.621094
2897.165039	4981.841797
2896.290039	5060.962891
2895.414063	4957.402344
2894.538086	4996.551758
2893.661133	4941.537109
2892.785156	5006.350098
2891.908203	5059.732910
2891.032227	5004.734375
2890.155273	4992.521484
2889.278320	5037.328613
2888.401367	4982.359375
2887.523438	5049.951660
2886.646484	5060.534668
2885.768555	5068.264648
2884.891602	5095.931152
2884.013672	4981.187988
2883.135742	4889.262207
2882.256836	5096.311523
2881.378906	4842.137695
2880.500977	4903.972168
2879.622070	4971.478027
2878.743164	5104.402832
2877.865234	4944.270020
2876.985352	4994.669922
2876.106445	4945.517578
2875.227539	4859.416504
2874.348633	5009.309570
2873.468750	4960.178223
2872.588867	4825.800781
2871.708984	4901.745117
2870.829102	5006.075684
2869.949219	5076.284180
2869.069336	4862.448242
2868.188477	5037.728516
2867.308594	4940.378906
2866.427734	4840.221680
2865.546875	4856.470703
2864.666016	4895.417480
2863.785156	5013.800781
2862.903320	4967.599121
2862.022461	5077.422363
2861.140625	4929.125488
2860.258789	5092.796387
2859.376953	4896.347168
2858.495117	4966.424316
2857.613281	4911.771484
2856.731445	5061.169922
2855.848633	5015.019043
2854.965820	4988.712891
2854.083984	4953.918457
2853.201172	4814.351563
2852.318359	4890.024902
2851.434570	4979.829102
2850.551758	5044.128906
2849.667969	5015.012695
2848.785156	4960.438477
2847.901367	4973.783691
2847.017578	5001.268066
2846.133789	5065.511719
2845.249023	5067.520996
2844.365234	4930.987305
2843.480469	4825.594238
2842.596680	4932.221191
2841.711914	4979.466797
2840.827148	4978.662598
2839.942383	5076.737305
2839.056641	4988.353027
2838.171875	4916.941895
2837.286133	4972.622559
2836.401367	4906.883789
2835.515625	4965.370605
2834.629883	4877.074707
2833.743164	4876.286621
2832.857422	5002.464844
2831.971680	4917.026367
2831.084961	5105.209473
2830.198242	5016.961426
2829.311523	4959.757813
2828.424805	4812.358398
2827.538086	5037.079590
2826.651367	4974.263672
2825.763672	4928.375000
2824.876953	4921.943848
2823.989258	4966.219238
2823.101563	5137.220703
2822.213867	4857.605957
2821.325195	5017.307617
2820.437500	5171.326660
2819.549805	4965.022461
2818.661133	5079.601563
2817.772461	5014.064941
2816.883789	4973.869141
2815.995117	4899.931641
2815.106445	4958.199707
2814.216797	5151.419922
2813.328125	4993.145996
2812.438477	5003.583008
2811.548828	5019.637695
2810.659180	5119.989746
2809.769531	5026.443848
2808.879883	4986.302734
2807.989258	5030.436523
2807.099609	5063.322754
2806.208984	5009.155762
2805.318359	5061.686035
2804.427734	4934.556641
2803.537109	4967.436523
2802.646484	4980.663574
2801.754883	4977.052734
2800.863281	4962.222656
2799.972656	5025.927246
2799.081055	5008.290039
2798.189453	5175.704590
2797.296875	5017.883789
2796.405273	5103.960449
2795.513672	5117.146973
2794.621094	5079.894531
2793.728516	4941.801270
2792.835938	4896.185547
2791.943359	4957.006348
2791.050781	5043.008789
2790.157227	5044.992676
2789.264648	5100.161133
2788.371094	4992.983887
2787.477539	4983.781738
2786.583984	5131.261719
2785.690430	5004.548828
2784.796875	5157.571777
2783.903320	5153.941406
2783.008789	5111.166992
2782.114258	5107.544922
2781.219727	5028.455078
2780.325195	5128.250488
2779.430664	5188.894531
2778.536133	5034.396973
2777.640625	5086.656250
2776.746094	5122.141113
2775.850586	5140.859375
2774.955078	5223.787109
2774.059570	5044.284668
2773.164063	5129.992188
2772.267578	5143.115234
2771.372070	5111.591797
2770.475586	5163.769531
2769.579102	5154.566406
2768.683594	5164.887695
2767.786133	5085.978027
2766.889648	5051.700195
2765.993164	5246.005371
2765.095703	5089.083984
2764.199219	5194.149902
2763.301758	5109.726563
2762.404297	5142.327637
2761.506836	5130.354980
2760.608398	5226.991211
2759.710938	5178.812500
2758.812500	5141.784180
2757.914063	5232.804688
2757.016602	5156.818359
2756.118164	5069.726074
2755.218750	5210.791016
2754.320313	5176.568359
2753.421875	5142.356934
2752.522461	5122.059570
2751.623047	5057.285156
2750.723633	5237.153809
2749.824219	5183.498535
2748.924805	5229.901367
2748.025391	5187.377930
2747.125000	5278.212891
2746.224609	5216.252441
2745.325195	5129.317871
2744.424805	5120.157715
2743.523438	5177.629395
2742.623047	5212.875977
2741.722656	5026.086426
2740.821289	5147.367188
2739.919922	5013.361816
2739.019531	5115.187012
2738.118164	5297.411133
2737.215820	5146.808105
2736.314453	5051.706055
2735.413086	5211.673828
2734.510742	5041.755371
2733.608398	5074.194336
2732.706055	5220.226563
2731.803711	5249.855469
2730.901367	5240.695801
2729.999023	5331.240234
2729.095703	5155.928223
2728.193359	5132.944824
2727.290039	5198.548828
2726.386719	5111.909180
2725.483398	5088.943848
2724.579102	5162.822754
2723.675781	5087.295898
2722.771484	5191.575684
2721.868164	5212.858887
2720.963867	5303.259277
2720.059570	5139.292480
2719.155273	5260.080566
2718.250000	5126.573730
2717.345703	5087.058594
2716.440430	5144.252441
2715.536133	5090.935547
2714.630859	5184.014648
2713.725586	5296.393066
2712.819336	5135.398926
2711.914063	5206.340820
2711.007813	5216.537598
2710.102539	5229.491211
2709.196289	5203.811523
2708.290039	5120.206543
2707.383789	5235.225098
2706.477539	5132.337402
2705.570313	5296.949219
2704.664063	5125.160645
2703.756836	5080.226563
2702.849609	5173.109375
2701.942383	5128.181641
2701.035156	5130.105957
2700.127930	5049.388184
2699.219727	5335.014160
2698.312500	5155.151367
2697.404297	5338.792480
2696.496094	4974.541016
2695.587891	5199.438477
2694.679688	5278.405273
2693.770508	5197.753906
2692.862305	5221.671875
2691.953125	5215.324219
2691.043945	5175.975586
2690.134766	5122.890625
2689.225586	5278.774414
2688.316406	5233.936035
2687.406250	5059.934570
2686.497070	5287.200684
2685.586914	5192.926270
2684.676758	5134.394531
2683.766602	5215.963379
2682.856445	5201.386719
2681.946289	5258.205566
2681.035156	5136.557617
2680.124023	5154.939941
2679.213867	5187.037598
2678.302734	5084.668457
2677.391602	5155.177246
2676.479492	5154.341797
2675.568359	5164.477051
2674.657227	5095.083984
2673.745117	5162.802734
2672.833008	5244.206543
2671.920898	5114.533691
2671.008789	5039.712402
2670.096680	5280.017090
2669.183594	5186.015625
2668.270508	5201.609375
2667.358398	5126.821777
2666.445313	5156.111328
2665.532227	5210.031250
2664.619141	5135.277832
2663.705078	5167.288086
2662.791992	5098.038574
2661.877930	5190.236816
2660.963867	5170.246582
2660.049805	5199.494629
2659.135742	5217.794434
2658.221680	5126.718262
2657.306641	5309.051758
2656.392578	5256.256836
2655.477539	5121.491699
2654.562500	5320.131836
2653.647461	5185.399414
2652.732422	5288.358887
2651.817383	5309.350586
2650.901367	5349.450195
2649.986328	5277.595703
2649.070313	5355.904297
2648.154297	5204.919922
2647.238281	5283.214844
2646.321289	5255.073242
2645.405273	5106.906250
2644.489258	5204.271484
2643.572266	5331.604004
2642.655273	5292.565430
2641.738281	5408.937012
2640.821289	5165.459961
2639.903320	5183.699707
2638.986328	5052.061035
2638.068359	5152.048340
2637.151367	5260.175293
2636.233398	5242.980469
2635.315430	5130.479004
2634.396484	5197.715332
2633.478516	5175.093750
2632.559570	5196.028809
2631.641602	5328.535156
2630.722656	5052.852051
2629.803711	5220.705566
2628.884766	5168.176758
2627.965820	5335.956543
2627.045898	5294.302246
2626.125977	5190.129883
2625.207031	5268.119629
2624.287109	5120.498535
2623.367188	5345.215820
2622.447266	5208.498047
2621.526367	5357.063965
2620.606445	5304.587891
2619.685547	5371.619141
2618.764648	5351.740723
2617.843750	5307.435547
2616.922852	5312.002441
2616.001953	5132.021973
2615.080078	5353.693848
2614.159180	5263.294922
2613.237305	5270.578125
2612.315430	5207.343262
2611.393555	5268.867188
2610.471680	5324.948730
2609.548828	5074.687500
2608.626953	5157.886230
2607.704102	5129.949219
2606.781250	5386.520508
2605.858398	5393.773438
2604.935547	5149.120117
2604.012695	5348.690918
2603.089844	5207.019043
2602.166016	5276.563965
2601.242188	5340.672363
2600.318359	5391.227539
2599.394531	5325.408203
2598.470703	5213.615723
2597.546875	5172.192383
2596.622070	5266.016113
2595.698242	5422.007324
2594.773438	5237.268066
2593.848633	5444.576660
2592.923828	5389.633789
2591.998047	5248.229492
2591.073242	5306.822266
2590.147461	5303.258789
2589.222656	5326.708008
2588.296875	5385.258789
2587.371094	5246.669434
2586.445313	5278.215332
2585.518555	5352.941895
2584.592773	5260.307129
2583.666016	5348.504395
2582.739258	5466.352051
2581.812500	5333.278809
2580.885742	5211.037598
2579.958984	5269.520020
2579.031250	5392.696289
2578.104492	5238.153320
2577.176758	5299.298340
2576.249023	5306.522461
2575.321289	5381.108887
2574.393555	5361.375488
2573.465820	5347.036133
2572.537109	5324.621094
2571.608398	5288.749023
2570.680664	5314.813477
2569.751953	5402.785156
2568.823242	5331.927246
2567.893555	5436.013672
2566.964844	5314.050781
2566.035156	5313.187500
2565.105469	5401.086914
2564.176758	5378.694336
2563.246094	5213.796875
2562.316406	5425.338867
2561.386719	5338.439941
2560.456055	5404.762207
2559.526367	5301.771973
2558.595703	5437.933105
2557.665039	5407.500000
2556.734375	5484.511230
2555.802734	5392.315430
2554.872070	5353.849121
2553.940430	5436.199707
2553.009766	5515.839355
2552.078125	5528.361328
2551.146484	5508.680176
2550.213867	5290.478027
2549.282227	5565.900879
2548.349609	5446.991699
2547.417969	5336.165039
2546.485352	5477.393066
2545.552734	5481.864258
2544.620117	5400.567383
2543.686523	5434.525879
2542.753906	5294.318359
2541.820313	5427.401367
2540.887695	5450.624512
2539.954102	5323.872070
2539.020508	5336.394531
2538.085938	5319.463867
2537.152344	5487.230957
2536.217773	5282.942871
2535.284180	5284.759277
2534.349609	5465.826660
2533.415039	5497.037109
2532.480469	5389.162598
2531.544922	5332.130371
2530.610352	5497.029297
2529.674805	5351.781738
2528.739258	5377.639160
2527.803711	5614.603516
2526.868164	5389.249512
2525.932617	5457.831543
2524.997070	5296.681152
2524.060547	5506.797852
2523.124023	5388.414063
2522.187500	5553.061523
2521.250977	5469.409668
2520.314453	5327.069824
2519.377930	5510.325195
2518.440430	5482.749023
2517.503906	5404.497559
2516.566406	5462.295410
2515.628906	5562.741211
2514.691406	5385.862305
2513.752930	5403.646973
2512.815430	5456.075684
2511.876953	5431.203613
2510.938477	5374.364258
2510.000000	5400.130859
2509.061523	5396.588379
2508.123047	5369.078125
2507.184570	5551.937500
2506.245117	5460.513672
2505.306641	5422.357910
2504.367188	5565.196777
2503.427734	5481.797852
2502.487305	5307.964355
2501.547852	5578.440918
2500.608398	5356.772461
2499.667969	5467.592773
2498.727539	5418.842773
2497.787109	5407.326660
2496.846680	5294.809082
2495.906250	5602.229004
2494.964844	5386.086426
2494.024414	5241.745605
2493.083008	5376.364258
2492.141602	5417.982910
2491.200195	5544.562012
2490.258789	5575.519531
2489.317383	5550.720703
2488.375000	5608.208496
2487.432617	5503.800293
2486.490234	5407.386230
2485.547852	5403.853027
2484.605469	5477.240723
2483.663086	5582.428223
2482.720703	5520.533691
2481.777344	5562.052734
2480.833984	5497.530762
2479.890625	5488.684570
2478.947266	5535.487793
2478.003906	5304.088867
2477.059570	5480.705566
2476.116211	5469.219238
2475.171875	5436.551270
2474.227539	5417.131836
2473.283203	5336.832520
2472.338867	5473.597656
2471.394531	5544.158203
2470.449219	5410.958008
2469.503906	5444.468262
2468.559570	5456.806641
2467.614258	5371.289063
2466.667969	5574.019043
2465.722656	5581.042480
2464.777344	5506.119629
2463.831055	5529.008789
2462.884766	5451.475586
2461.938477	5426.809082
2460.992188	5359.883789
2460.045898	5435.605469
2459.099609	5537.710449
2458.152344	5539.448730
2457.205078	5443.508789
2456.257813	5492.772461
2455.310547	5457.569824
2454.363281	5506.814453
2453.416016	5474.258789
2452.467773	5423.249023
2451.520508	5501.485352
2450.572266	5490.041504
2449.624023	5512.875000
2448.675781	5575.241699
2447.726563	5489.993164
2446.778320	5518.085449
2445.829102	5456.586914
2444.879883	5545.264648
2443.930664	5446.906738
2442.981445	5414.417480
2442.032227	5476.727539
2441.083008	5449.508789
2440.132813	5488.103516
2439.182617	5445.100586
2438.232422	5549.466309
2437.282227	5522.252441
2436.332031	5581.853027
2435.381836	5415.250977
2434.430664	5353.886719
2433.480469	5326.722168
2432.529297	5480.950195
2431.578125	5374.923828
2430.626953	5445.000488
2429.674805	5328.504395
2428.723633	5453.733398
2427.771484	5342.526367
2426.819336	5433.571777
2425.867188	5435.311523
2424.915039	5431.799805
2423.962891	5567.408691
2423.010742	5550.753906
2422.057617	5282.196777
2421.104492	5467.611816
2420.151367	5319.821777
2419.198242	5463.206055
2418.245117	5454.447754
2417.291992	5416.851563
2416.337891	5350.431152
2415.383789	5438.674316
2414.430664	5338.203613
2413.475586	5350.434082
2412.521484	5349.561035
2411.567383	5194.147461
2410.612305	5313.770020
2409.658203	5265.770508
2408.703125	5351.307617
2407.748047	5308.552246
2406.792969	5257.959473
2405.837891	5155.047363
2404.881836	5245.778809
2403.925781	5305.088867
2402.970703	5264.991211
2402.013672	5188.294922
2401.058594	5333.868652
2400.101563	5306.855957
2399.144531	5266.783203
2398.189453	5344.324707
2397.232422	5225.870605
2396.275391	5245.917969
2395.318359	5354.769043
2394.361328	5194.584473
2393.404297	5185.902832
2392.445313	5237.272461
2391.488281	5364.326660
2390.529297	5272.102539
2389.572266	5211.223145
2388.613281	5364.309570
2387.656250	5259.086914
2386.697266	5195.630371
2385.738281	5252.154785
2384.779297	5141.786621
2383.820313	5276.509766
2382.861328	5319.959961
2381.902344	5068.903809
2380.943359	5195.755371
2379.982422	5145.406738
2379.023438	5266.994629
2378.064453	5151.540527
2377.103516	5260.066895
2376.142578	5074.354980
2375.183594	5151.620605
2374.222656	5140.368652
2373.261719	5087.483398
2372.300781	5146.495605
2371.339844	5208.089844
2370.378906	5251.457031
2369.417969	5128.371582
2368.455078	5104.132324
2367.494141	5176.091797
2366.533203	5146.653809
2365.570313	5226.378906
2364.609375	5067.018555
2363.646484	5141.534668
2362.683594	5086.144531
2361.720703	5173.618652
2360.757813	5068.902832
2359.794922	5101.827637
2358.832031	5051.671387
2357.869141	5032.677734
2356.906250	5000.714844
2355.943359	5067.358887
2354.978516	5056.154297
2354.015625	5166.861816
2353.050781	5189.357910
2352.085938	5178.138672
2351.123047	5190.255371
2350.158203	5158.301758
2349.193359	5121.175293
2348.228516	5055.557129
2347.263672	5015.868652
2346.298828	5121.255859
2345.333984	5068.619141
2344.367188	4894.289551
2343.402344	5056.606445
2342.437500	5081.667480
2341.470703	5016.129395
2340.503906	5048.952148
2339.539063	5151.625000
2338.572266	5163.718262
2337.605469	5134.421875
2336.638672	4949.963379
2335.671875	4892.267090
2334.705078	4875.955566
2333.738281	5019.914063
2332.771484	5024.262695
2331.802734	5248.255859
2330.835938	5195.725098
2329.867188	5331.786621
2328.900391	5346.412109
2327.931641	5167.353516
2326.962891	5107.123535
2325.994141	5106.288574
2325.027344	4898.964355
2324.058594	4970.422852
2323.089844	5023.795898
2322.119141	5020.394531
2321.150391	4991.200195
2320.181641	5034.227051
2319.210938	5041.139648
2318.242188	4913.985352
2317.271484	4969.892090
2316.302734	5051.553711
2315.332031	4865.190430
2314.361328	4939.112793
2313.390625	5046.499512
2312.419922	4996.737305
2311.449219	4965.017578
2310.478516	4964.205566
2309.507813	4932.500977
2308.537109	4905.954590
2307.564453	4869.122559
2306.593750	4932.653809
2305.621094	4900.975098
2304.650391	4918.173340
2303.677734	4935.372070
2302.705078	4952.570313
2301.732422	4977.470215
2300.759766	4958.661621
2299.787109	4842.192871
2298.814453	4941.620605
2297.841797	4948.520020
2296.869141	4993.950684
2295.896484	4967.448730
2294.921875	4979.476563
2293.949219	5073.664551
2292.974609	4908.531738
2292.000000	4928.263184
2291.027344	4876.128906
2290.052734	4934.348145
2289.078125	4900.188477
2288.103516	4855.779785
2287.128906	4824.208496
2286.154297	4890.090332
2285.177734	4943.131348
2284.203125	4875.672363
2283.228516	5010.714844
2282.251953	4902.265137
2281.277344	4937.333496
2280.300781	4941.648926
2279.324219	4922.910645
2278.347656	4876.007813
2277.371094	4834.241699
2276.394531	4820.649902
2275.417969	4942.724609
2274.441406	4860.019531
2273.464844	4805.488281
2272.488281	4945.414551
2271.509766	4819.262695
2270.533203	4936.122559
2269.554688	4907.185547
2268.578125	4960.073242
2267.599609	4892.796875
2266.621094	5014.679199
2265.642578	4949.970703
2264.664063	4903.168945
2263.685547	5068.417969
2262.707031	4937.322266
2261.728516	4880.330078
2260.750000	4928.044922
2259.769531	4922.132324
2258.791016	4908.562988
2257.810547	4912.863281
2256.832031	5019.230957
2255.851563	4992.895996
2254.871094	4974.221680
2253.890625	4978.507813
2252.910156	4967.492188
2251.929688	5015.121582
2250.949219	5029.595215
2249.968750	4827.416504
2248.988281	5002.463379
2248.005859	4965.972656
2247.025391	4926.945801
2246.042969	4928.685547
2245.062500	5017.012695
2244.080078	4891.422852
2243.097656	4872.799805
2242.115234	4966.183594
2241.132813	4901.743652
2240.150391	4900.940430
2239.167969	4910.313965
2238.185547	5023.979980
2237.203125	4974.832520
2236.218750	5001.989746
2235.236328	4896.925781
2234.253906	4936.797363
2233.269531	4925.821289
2232.285156	4726.793457
2231.300781	4924.206543
2230.318359	4964.046875
2229.333984	4854.011719
2228.349609	4906.547852
2227.365234	4890.508301
2226.378906	4993.796875
2225.394531	4878.751465
2224.410156	5022.615234
2223.423828	4849.239258
2222.439453	4896.649414
2221.453125	4944.043945
2220.468750	4854.463379
2219.482422	5013.427246
2218.496094	4878.226074
2217.509766	4750.673828
2216.523438	4947.595703
2215.537109	4923.976563
2214.550781	4892.763672
2213.564453	4755.158691
2212.576172	4805.038086
2211.589844	4852.368652
2210.601563	5056.675781
2209.615234	4934.323730
2208.626953	4865.169434
2207.638672	4960.545410
2206.650391	5007.810547
2205.664063	4966.508301
2204.675781	4925.219238
2203.685547	4873.826660
2202.697266	4824.979980
2201.708984	4867.170898
2200.720703	4805.701172
2199.730469	4850.408691
2198.742188	4943.117676
2197.751953	4927.146484
2196.763672	5024.864746
2195.773438	4887.641113
2194.783203	4987.858887
2193.792969	4959.264648
2192.802734	4867.562988
2191.812500	4912.200684
2190.822266	4921.490234
2189.832031	4890.401367
2188.839844	4980.427246
2187.849609	4951.861328
2186.857422	4867.816406
2185.867188	4983.019043
2184.875000	4898.996582
2183.882813	4923.401855
2182.892578	4864.621582
2181.900391	4876.423828
2180.908203	5059.561523
2179.916016	4811.840820
2178.921875	4879.060547
2177.929688	4933.666016
2176.937500	5058.758301
2175.943359	4856.517090
2174.951172	4898.512695
2173.957031	4907.775391
2172.964844	4831.478027
2171.970703	4936.355957
2170.976563	4880.203125
2169.982422	4884.432129
2168.988281	4883.629883
2167.994141	4794.826660
2167.000000	5055.486328
2166.005859	4954.116211
2165.009766	4943.250488
2164.015625	4997.717285
2163.019531	4951.675781
2162.025391	4933.279785
2161.029297	5047.995605
2160.033203	4989.413086
2159.039063	4955.955566
2158.042969	4922.508789
2157.046875	5024.602051
2156.050781	4976.098145
2155.052734	4950.191406
2154.056641	5007.074707
2153.060547	4888.369629
2152.062500	5007.937500
2151.066406	4999.593262
2150.068359	5026.347656
2149.072266	4942.807617
2148.074219	4919.440918
2147.076172	5056.444336
2146.078125	5010.519043
2145.080078	5002.181152
2144.082031	5086.510254
2143.083984	5068.145996
2142.085938	4957.154297
2141.085938	5063.977539
2140.087891	4963.033691
2139.087891	4982.236816
2138.089844	4968.908203
2137.089844	5098.172852
2136.089844	5127.348633
2135.089844	5041.480957
2134.089844	5098.159668
2133.089844	4902.328613
2132.089844	5053.992188
2131.089844	5063.157715
2130.089844	5064.824219
2129.089844	5113.957031
2128.087891	4935.768555
2127.087891	5059.829590
2126.085938	5191.340820
2125.083984	5075.642578
2124.082031	5019.891113
2123.082031	5213.738770
2122.080078	4908.443359
2121.078125	5124.699707
2120.076172	4946.742188
2119.072266	5160.427246
2118.070313	5069.803223
2117.068359	5121.330078
2116.064453	5018.277344
2115.062500	5124.630859
2114.058594	4989.213867
2113.054688	5085.569824
2112.052734	5007.503418
2111.048828	4931.953125
2110.044922	4998.384766
2109.041016	5141.986328
2108.037109	5019.147461
2107.031250	5105.445313
2106.027344	5072.250977
2105.023438	5146.069336
2104.017578	4963.597168
2103.013672	5099.599121
2102.007813	5031.605957
2101.001953	4953.687500
2099.998047	4992.654785
2098.992188	5021.665039
2097.986328	4884.132813
2096.980469	5010.072266
2095.972656	5086.274902
2094.966797	5018.360840
2093.960938	5064.729492
2092.955078	5091.214844
2091.947266	5085.410645
2090.939453	5077.125977
2089.933594	5106.077637
2088.925781	5110.201172
2087.917969	4955.508789
2086.910156	5098.595215
2085.902344	4963.800293
2084.894531	5121.719238
2083.886719	4954.726563
2082.878906	5110.115723
2081.871094	4995.239258
2080.861328	5078.689941
2079.853516	5013.420410
2078.843750	4967.994629
2077.833984	5058.840332
2076.826172	5015.898926
2075.816406	5017.549316
2074.806641	4989.485352
2073.796875	4968.857910
2072.787109	5057.152344
2071.777344	5009.295898
2070.765625	5033.216309
2069.755859	5062.077148
2068.744141	5026.611328
2067.734375	4991.157227
2066.722656	4975.497559
2065.712891	5043.908691
2064.701172	4976.331055
2063.689453	5052.133789
2062.677734	5061.187012
2061.666016	5072.707520
2060.654297	5005.169434
2059.642578	5115.498047
2058.628906	5149.230469
2057.617188	5212.582520
2056.605469	5157.409668
2055.591797	4885.032227
2054.578125	5059.457031
2053.566406	4917.969238
2052.552734	5045.454102
2051.539063	5054.490234
2050.525391	4947.602051
2049.511719	5131.736328
2048.498047	5244.308105
2047.484375	5110.324219
2046.468750	5102.087402
2045.455078	5044.566406
2044.439453	4930.392578
2043.425781	5023.195313
2042.410156	5029.756836
2041.394531	5063.406738
2040.380859	5050.260254
2039.365234	5098.666504
2038.349609	5041.210938
2037.333984	5023.152344
2036.316406	5108.449707
2035.300781	5070.702637
2034.285156	5005.909180
2033.267578	4985.408203
2032.251953	5046.063477
2031.234375	5057.525391
2030.218750	4997.692383
2029.201172	5068.146973
2028.183594	5018.162109
2027.166016	5005.049316
2026.148438	4977.200684
2025.130859	5008.311523
2024.113281	5027.132324
2023.093750	4996.838379
2022.076172	4996.014160
2021.056641	5127.740723
2020.039063	5190.705078
2019.019531	4922.381836
2018.001953	5002.533203
2016.982422	4933.023438
2015.962891	5089.177246
2014.943359	5080.980957
2013.923828	5038.462402
2012.904297	4976.346191
2011.882813	4968.172363
2010.863281	5004.111816
2009.843750	5062.090820
2008.822266	5002.460938
2007.802734	5065.319336
2006.781250	4929.790039
2005.759766	4943.668457
2004.738281	5060.364746
2003.716797	5061.977539
2002.695313	4990.168945
2001.673828	5136.163086
2000.652344	5076.598145
1999.630859	5090.437500
1998.609375	4867.034668
1997.585938	5059.413086
1996.564453	4946.111328
1995.541016	4920.849609
1994.517578	4915.149414
1993.494141	4999.868652
1992.472656	4981.939941
1991.449219	4827.213379
1990.425781	4992.508301
1989.400391	4981.915527
1988.376953	4839.474121
1987.353516	4907.031738
1986.328125	4923.308105
1985.304688	4829.755859
1984.279297	4970.484375
1983.255859	4879.395020
1982.230469	4929.814941
1981.205078	4907.050781
1980.179688	5050.111328
1979.154297	4842.040039
1978.128906	4972.875488
1977.103516	4835.566895
1976.078125	4883.505859
1975.050781	4853.461914
1974.025391	4818.555176
1972.998047	4854.294434
1971.972656	4790.175781
1970.945313	5079.133789
1969.917969	4825.110840
1968.892578	4936.280762
1967.865234	4835.685059
1966.837891	4861.652344
1965.808594	4853.550781
1964.781250	4791.937500
1963.753906	4749.801270
1962.724609	4984.886719
1961.697266	4782.269531
1960.667969	4839.819824
1959.640625	4773.397949
1958.611328	4857.661133
1957.582031	4851.999023
1956.552734	4977.518066
1955.523438	4784.816895
1954.494141	4876.307129
1953.464844	4843.937012
1952.435547	4826.143066
1951.404297	4723.401367
1950.375000	4817.267578
1949.343750	4816.471191
1948.314453	4844.787598
1947.283203	4839.135742
1946.251953	4755.877930
1945.222656	4844.810547
1944.191406	4873.103027
1943.158203	4775.336426
1942.126953	4680.025391
1941.095703	4827.068848
1940.064453	4857.767578
1939.031250	4808.516113
1938.000000	4814.987305
1936.966797	4891.683105
1935.935547	4791.604004
1934.902344	4793.232910
1933.869141	4780.337891
1932.835938	4847.308594
1931.802734	4873.122559
1930.769531	4794.901855
1929.736328	4733.638184
1928.703125	4844.103027
1927.667969	4874.736328
1926.634766	4733.708008
1925.599609	4880.375488
1924.566406	4823.981445
1923.531250	4876.344727
1922.496094	4747.489258
1921.460938	4886.810059
1920.425781	4914.984375
1919.390625	4880.363770
1918.355469	4886.799805
1917.320313	5013.935059
1916.285156	4812.774414
1915.248047	4853.002930
1914.212891	4823.246094
1913.175781	4926.182617
1912.138672	4942.251953
1911.103516	4883.555176
1910.066406	4839.344727
1909.029297	4898.814941
1907.992188	4878.720703
1906.955078	4793.562012
1905.917969	4932.527832
1904.878906	4869.071289
1903.841797	4873.083008
1902.802734	4865.051270
1901.765625	4897.958984
1900.726563	4962.154297
1899.687500	4814.491211
1898.650391	4849.796875
1897.611328	4863.433105
1896.572266	4929.997559
1895.533203	5018.190430
1894.494141	4921.149414
1893.453125	4915.524902
1892.414063	4885.857910
1891.375000	4930.726074
1890.333984	4891.451172
1889.292969	4960.335938
1888.253906	4947.500000
1887.212891	4915.448730
1886.171875	4784.923340
1885.130859	4954.649414
1884.089844	4961.033203
1883.048828	4924.198242
1882.007813	4973.792969
1880.964844	4929.767578
1879.923828	4904.954590
1878.880859	4844.159668
1877.839844	4980.094238
1876.796875	4868.938477
1875.753906	4870.530273
1874.712891	4879.314453
1873.669922	4818.573730
1872.626953	4834.553711
1871.583984	4819.373535
1870.539063	4902.438965
1869.496094	4911.209961
1868.453125	4840.932129
1867.408203	4801.811035
1866.365234	4786.648438
1865.320313	4831.343750
1864.275391	4880.811523
1863.230469	4844.103027
1862.187500	4814.584961
1861.142578	4797.039063
1860.095703	4930.204102
1859.050781	4852.851563
1858.005859	4794.654785
1856.960938	4777.123535
1855.914063	4836.095703
1854.869141	4787.490723
1853.822266	4762.799805
1852.775391	4879.089355
1851.730469	4751.665039
1850.683594	4836.865723
1849.636719	4783.523926
1848.589844	4930.773926
1847.541016	4863.109375
1846.494141	4661.795898
1845.447266	4715.914551
1844.400391	4827.284180
1843.351563	4814.554688
1842.302734	4706.413086
1841.255859	4719.942871
1840.207031	4797.852539
1839.158203	4797.056641
1838.109375	4691.373047
1837.060547	4735.879883
1836.011719	4730.328613
1834.962891	4665.212891
1833.912109	4733.523926
1832.863281	4720.829590
1831.814453	4731.954102
1830.763672	4669.261719
1829.712891	4697.055176
1828.664063	4739.120605
1827.613281	4776.412598
1826.562500	4680.440918
1825.511719	4691.560059
1824.460938	4655.101074
1823.408203	4896.915039
1822.357422	4653.556641
1821.306641	4657.539551
1820.253906	4699.554688
1819.203125	4779.583496
1818.150391	4674.231934
1817.097656	4823.140137
1816.046875	4739.195801
1814.994141	4586.400391
1813.941406	4773.244141
1812.888672	4670.354492
1811.833984	4669.579590
1810.781250	4680.672363
1809.728516	4691.761230
1808.673828	4859.449707
1807.621094	4756.630859
1806.566406	4770.072754
1805.511719	4679.160645
1804.458984	4654.671875
1803.404297	4623.078613
1802.349609	4759.794922
1801.294922	4692.644043
1800.238281	4777.171387
1799.183594	4641.332031
1798.128906	4830.068848
1797.072266	4762.950195
1796.017578	4710.062012
1794.960938	4846.604004
1793.906250	4843.432129
1792.849609	4755.053223
1791.792969	4692.735352
1790.736328	4701.419922
1789.679688	4769.244629
1788.623047	4695.127930
1787.564453	4840.972656
1786.507813	4693.568359
1785.451172	4744.799316
1784.392578	4770.012207
1783.335938	4745.586426
1782.277344	4718.805664
1781.218750	4710.934082
1780.160156	4613.302734
1779.101563	4709.368652
1778.042969	4876.244141
1776.984375	4641.696289
1775.925781	4836.854492
1774.865234	4800.647461
1773.806641	4785.690918
1772.746094	4827.365234
1771.687500	4647.277344
1770.626953	4785.664063
1769.566406	4716.479980
1768.507813	4687.401855
1767.447266	4771.491211
1766.386719	4810.768066
1765.324219	4699.205078
1764.263672	4813.881836
1763.203125	4853.131836
1762.140625	4755.749512
1761.080078	4875.069336
1760.017578	4827.164551
1758.957031	4821.653320
1757.894531	4785.542969
1756.832031	4763.565430
1755.769531	4800.423828
1754.707031	4689.045898
1753.644531	4662.390137
1752.582031	4809.789063
1751.517578	4825.450684
1750.455078	4874.022949
1749.390625	4750.970703
1748.328125	4794.838379
1747.263672	4747.040527
1746.199219	4859.033203
1745.136719	4754.858887
1744.072266	4754.067871
1743.007813	4788.503906
1741.941406	4801.795898
1740.876953	4718.828613
1739.812500	4708.654297
1738.748047	4813.481445
1737.681641	4751.671387
1736.615234	4722.727539
1735.550781	4764.164551
1734.484375	4700.048340
1733.417969	4910.311035
1732.351563	4869.636719
1731.285156	4847.729004
1730.218750	4914.891602
1729.152344	4860.175781
1728.085938	4847.651855
1727.017578	4872.613770
1725.951172	4771.087891
1724.882813	4924.854004
1723.814453	4870.181641
1722.748047	4848.301270
1721.679688	4898.988770
1720.611328	4804.562988
1719.542969	4766.325195
1718.474609	4814.660645
1717.404297	4753.042969
1716.335938	4686.767578
1715.267578	4866.038086
1714.197266	4806.779785
1713.128906	4822.341797
1712.058594	4821.539063
1710.988281	4757.643555
1709.917969	4826.942871
1708.847656	4728.027832
1707.777344	4764.609863
1706.707031	4738.129395
1705.636719	4844.741699
1704.566406	4771.567383
1703.494141	4619.060547
1702.423828	4758.310059
1701.351563	4832.181641
1700.281250	4656.411621
1699.208984	4716.280273
1698.136719	4703.834473
1697.064453	4880.260254
1695.992188	4704.598633
1694.919922	4722.462402
1693.847656	4735.658691
1692.773438	4858.368164
1691.701172	4682.826172
1690.626953	4861.407715
1689.554688	4734.832520
1688.480469	4741.029297
1687.406250	4686.690430
1686.332031	4820.923340
1685.257813	4882.960449
1684.183594	4682.020996
1683.109375	4702.180664
1682.035156	4715.354492
1680.960938	4702.938965
1679.884766	4785.873047
1678.810547	4866.454102
1677.734375	4784.277832
1676.658203	4764.885742
1675.583984	4689.725098
1674.507813	4823.709473
1673.431641	4841.490723
1672.355469	4717.576172
1671.279297	4842.199219
1670.201172	4813.527832
1669.125000	4671.105957
1668.048828	4709.788086
1666.970703	4804.157715
1665.892578	4657.167480
1664.816406	4633.189941
1663.738281	4702.008301
1662.660156	4698.904785
1661.582031	4626.234863
1660.503906	4597.640625
1659.425781	4849.551270
1658.347656	4881.190918
1657.267578	4701.939453
1656.189453	4763.713867
1655.109375	4667.938965
1654.031250	4706.535645
1652.951172	4545.958984
1651.871094	4628.556152
1650.791016	4648.619141
1649.710938	4627.011719
1648.630859	4686.411133
1647.550781	4572.248535
1646.470703	4580.739746
1645.388672	4697.944336
1644.308594	4720.287598
1643.226563	4636.255371
1642.146484	4693.280762
1641.064453	4620.838867
1639.982422	4719.448730
1638.900391	4663.201660
1637.818359	4632.388184
1636.736328	4525.353516
1635.654297	4725.537109
1634.570313	4500.750000
1633.488281	4608.516113
1632.406250	4614.671875
1631.322266	4627.750488
1630.238281	4767.748535
1629.156250	4626.205078
1628.072266	4553.917480
1626.988281	4682.324707
1625.904297	4582.377441
1624.820313	4519.355469
1623.734375	4523.211914
1622.650391	4492.491211
1621.566406	4547.052246
1620.480469	4620.029297
1619.396484	4716.020020
1618.310547	4551.685059
1617.224609	4645.352051
1616.138672	4520.229492
1615.052734	4733.591309
1613.966797	4601.589355
1612.880859	4566.297363
1611.794922	4441.270996
1610.708984	4493.447266
1609.621094	4534.104004
1608.535156	4547.146973
1607.447266	4580.881836
1606.359375	4605.408203
1605.273438	4478.200684
1604.185547	4417.691895
1603.097656	4504.281738
1602.009766	4586.246582
1600.921875	4511.965820
1599.832031	4621.465332
1598.744141	4533.423340
1597.654297	4479.853516
1596.566406	4499.767090
1595.476563	4556.400391
1594.388672	4553.343750
1593.298828	4426.376953
1592.208984	4627.532715
1591.119141	4516.652832
1590.029297	4488.375488
1588.939453	4689.419434
1587.847656	4484.582520
1586.757813	4593.865234
1585.666016	4570.177734
1584.576172	4560.247070
1583.484375	4625.929199
1582.392578	4666.390625
1581.302734	4686.224121
1580.210938	4552.617676
1579.119141	4728.160645
1578.025391	4651.823730
1576.933594	4651.045410
1575.841797	4586.189453
1574.750000	4594.574707
1573.656250	4566.353516
1572.562500	4593.038086
1571.470703	4651.731445
1570.376953	4584.641602
1569.283203	4739.337891
1568.189453	4747.688477
1567.095703	4559.486816
1566.001953	4645.556641
1564.908203	4644.779297
1563.812500	4662.276855
1562.718750	4627.237793
1561.623047	4669.851074
1560.529297	4586.875488
1559.433594	4741.337402
1558.337891	4809.015625
1557.242188	4755.724609
1556.146484	4825.659180
1555.050781	4774.664063
1553.955078	4860.538086
1552.859375	4891.651367
1551.761719	4740.345703
1550.666016	4728.153320
1549.568359	4697.730469
1548.472656	4653.644043
1547.375000	4805.529785
1546.277344	4665.754883
1545.179688	4806.198730
1544.082031	4762.123047
1542.984375	4747.663086
1541.886719	4842.488770
1540.787109	4748.349609
1539.689453	4697.484375
1538.589844	4703.524414
1537.492188	4650.408203
1536.392578	4638.255859
1535.292969	4557.875488
1534.193359	4766.320801
1533.095703	4701.860840
1531.994141	4639.695801
1530.894531	4713.923340
1529.794922	4719.951172
1528.695313	4664.629883
1527.593750	4682.022461
1526.494141	4728.936035
1525.392578	4646.389160
1524.291016	4713.728516
1523.189453	4674.345215
1522.089844	4693.990234
1520.988281	4670.509766
1519.884766	4613.000488
1518.783203	4621.302246
1517.681641	4586.503418
1516.580078	4726.345703
1515.476563	4732.356445
1514.373047	4733.830566
1513.271484	4689.968262
1512.167969	4625.723145
1511.064453	4711.056641
1509.960938	4635.500488
1508.857422	4623.397461
1507.753906	4706.422852
1506.650391	4556.176758
1505.544922	4657.298828
1504.441406	4692.737793
1503.335938	4547.095703
1502.232422	4634.589844
1501.126953	4654.176270
1500.021484	4535.760254
1498.916016	4507.857422
1497.810547	4516.147461
1496.705078	4585.483887
1495.599609	4573.411133
1494.494141	4611.069824
1493.386719	4434.020508
1492.281250	4523.659668
1491.173828	4495.790527
1490.068359	4486.001465
1488.960938	4514.608398
1487.853516	4536.431641
1486.746094	4481.486816
1485.638672	4532.652832
1484.531250	4500.295410
1483.423828	4549.184570
1482.314453	4539.396484
1481.207031	4586.006348
1480.097656	4501.787109
1478.990234	4579.957520
1477.880859	4448.419434
1476.771484	4472.470215
1475.662109	4498.766113
1474.552734	4457.448242
1473.443359	4549.078613
1472.333984	4496.501465
1471.224609	4466.465820
1470.113281	4463.464355
1469.003906	4469.470215
1467.892578	4455.212402
1466.783203	4501.732910
1465.671875	4359.196289
1464.560547	4448.468750
1463.449219	4490.467285
1462.337891	4496.461426
1461.226563	4563.175781
1460.115234	4483.708496
1459.001953	4548.154297
1457.890625	4450.733398
1456.777344	4508.419922
1455.666016	4455.979980
1454.552734	4518.139648
1453.439453	4497.163574
1452.326172	4491.916504
1451.212891	4470.952148
1450.099609	4438.768066
1448.986328	4702.912109
1447.873047	4450.744141
1446.757813	4645.230469
1445.644531	4458.223633
1444.529297	4488.881348
1443.414063	4470.183594
1442.300781	4411.125977
1441.185547	4464.197266
1440.070313	4642.792480
1438.955078	4590.458984
1437.839844	4623.303711
1436.722656	4449.994629
1435.607422	4489.572266
1434.492188	4665.771973
1433.375000	4505.979980
1432.257813	4471.634766
1431.142578	4444.017578
1430.025391	4394.025391
1428.908203	4538.760254
1427.791016	4598.414551
1426.673828	4617.777344
1425.556641	4534.234863
1424.437500	4475.322754
1423.320313	4414.193848
1422.201172	4464.875000
1421.083984	4522.245117
1419.964844	4463.373535
1418.845703	4603.407227
1417.726563	4495.387207
1416.607422	4374.000000
1415.488281	4464.839844
1414.369141	4566.814453
1413.250000	4429.846191
1412.128906	4413.474609
1411.009766	4428.356445
1409.888672	4496.792969
1408.769531	4478.186523
1407.648438	4377.042480
1406.527344	4501.216309
1405.406250	4342.117676
1404.285156	4417.200195
1403.164063	4445.439453
1402.042969	4489.271973
1400.919922	4321.367676
1399.798828	4436.511230
1398.675781	4451.359863
1397.554688	4325.869141
1396.431641	4418.682129
1395.308594	4478.061523
1394.185547	4435.006348
1393.062500	4358.574707
1391.939453	4406.806152
1390.816406	4441.668945
1389.693359	4302.977051
1388.568359	4391.233887
1387.445313	4428.305664
1386.320313	4285.237793
1385.197266	4297.856934
1384.072266	4381.609375
1382.947266	4405.320801
1381.822266	4295.687012
1380.697266	4226.084473
1379.572266	4380.880859
1378.445313	4329.056641
1377.320313	4394.951660
1376.195313	4405.313477
1375.068359	4360.170898
1373.941406	4319.482422
1372.816406	4394.211426
1371.689453	4300.276367
1370.562500	4292.896484
1369.435547	4363.155273
1368.308594	4357.984863
1367.179688	4465.904785
1366.052734	4334.346191
1364.923828	4393.466797
1363.796875	4372.779785
1362.667969	4389.770508
1361.541016	4395.677734
1360.412109	4366.139648
1359.283203	4358.759766
1358.154297	4470.961914
1357.025391	4324.080078
1355.894531	4327.778809
1354.765625	4211.957031
1353.636719	4310.830078
1352.505859	4418.520020
1351.376953	4234.162109
1350.246094	4313.074707
1349.115234	4429.555176
1347.984375	4545.996094
1346.853516	4421.429688
1345.722656	4449.418945
1344.591797	4389.000000
1343.460938	4319.762695
1342.328125	4347.754395
1341.197266	4300.635254
1340.064453	4405.917480
1338.933594	4451.544922
1337.800781	4351.446289
1336.667969	4452.251465
1335.535156	4515.503418
1334.402344	4422.063965
1333.269531	4454.412109
1332.134766	4488.954590
1331.001953	4463.937500
1329.869141	4480.825684
1328.734375	4422.746094
1327.599609	4426.408691
1326.466797	4412.437988
1325.332031	4416.101074
1324.197266	4417.559570
1323.062500	4430.031738
1321.927734	4376.423828
1320.791016	4404.313477
1319.656250	4515.861816
1318.519531	4460.064453
1317.384766	4369.069336
1316.248047	4377.134766
1315.113281	4345.591797
1313.976563	4287.660645
1312.839844	4476.099121
1311.703125	4492.937012
1310.566406	4399.828613
1309.427734	4286.965332
1308.291016	4345.589844
1307.154297	4454.741699
1306.015625	4265.019043
1304.878906	4376.344238
1303.740234	4419.537109
1302.601563	4344.119629
1301.462891	4360.953125
1300.324219	4351.435059
1299.185547	4278.262207
1298.046875	4288.513184
1296.906250	4347.037109
1295.767578	4335.333008
1294.626953	4321.439453
1293.488281	4311.936523
1292.347656	4403.309570
1291.207031	4251.282715
1290.066406	4248.372559
1288.925781	4322.175293
1287.785156	4229.406738
1286.644531	4333.861816
1285.503906	4276.172363
1284.361328	4236.024902
1283.220703	4296.626953
1282.078125	4175.476074
1280.937500	4260.148926
1279.794922	4452.044434
1278.652344	4269.651855
1277.509766	4345.512695
1276.367188	4244.144043
1275.224609	4387.791016
1274.080078	4376.114746
1272.937500	4296.658203
1271.794922	4293.745605
1270.650391	4255.860840
1269.505859	4246.399414
1268.363281	4287.198730
1267.218750	4264.626953
1266.074219	4362.203125
1264.929688	4324.337402
1263.783203	4282.117676
1262.638672	4215.895508
1261.494141	4300.315918
1260.347656	4319.231934
1259.203125	4285.769043
1258.056641	4357.043945
1256.910156	4205.788574
1255.763672	4283.595703
1254.617188	4315.581543
1253.470703	4282.146973
1252.324219	4272.703125
1251.177734	4335.188477
1250.031250	4310.483887
1248.882813	4375.120605
1247.734375	4254.564453
1246.587891	4273.447754
1245.439453	4320.635254
1244.291016	4232.809570
1243.142578	4404.076660
1241.994141	4377.211914
1240.845703	4356.885254
1239.697266	4325.685547
1238.546875	4361.937500
1237.398438	4419.929199
1236.248047	4477.900879
1235.099609	4411.910156
1233.949219	4398.119141
1232.798828	4356.075195
1231.648438	4509.643555
1230.498047	4537.128906
1229.347656	4434.249512
1228.197266	4420.465820
1227.044922	4411.030273
1225.894531	4499.314453
1224.742188	4587.568848
1223.591797	4469.571777
1222.439453	4531.756348
1221.287109	4426.828125
1220.134766	4319.766113
1218.982422	4572.840332
1217.830078	4450.607422
1216.677734	4540.932617
1215.523438	4655.077148
1214.371094	4649.953125
1213.216797	4536.458984
1212.064453	4576.865234
1210.910156	4667.091797
1209.755859	4562.316895
1208.601563	4613.527832
1207.447266	4458.988281
1206.292969	4765.697266
1205.136719	4606.854004
1203.982422	4586.593262
1202.828125	4702.679688
1201.671875	4717.029785
1200.515625	4794.113281
1199.361328	4687.312012
1198.205078	4677.867188
1197.048828	4674.912109
1195.892578	4829.780273
1194.736328	4885.162598
1193.578125	4784.919434
1192.421875	4773.304199
1191.265625	4681.755371
1190.107422	4665.840820
1188.949219	4699.606445
1187.792969	4871.560059
1186.634766	4739.034668
1185.476563	4833.211914
1184.318359	4858.291992
1183.160156	4848.836914
1182.000000	4798.391113
1180.841797	4778.163086
1179.681641	4902.448242
1178.523438	4951.215820
1177.363281	4978.405273
1176.203125	4979.716797
1175.044922	4877.570801
1173.884766	4969.408203
1172.724609	5067.678223
1171.562500	5047.430664
1170.402344	5022.881836
1169.242188	4987.573730
1168.080078	5036.250488
1166.919922	5009.562500
1165.757813	4967.816895
1164.595703	5132.683105
1163.433594	5015.620605
1162.271484	4976.045898
1161.109375	5054.787598
1159.947266	5150.707520
1158.785156	5240.143555
1157.621094	5209.156250
1156.458984	5322.196777
1155.294922	5274.012695
1154.132813	5253.778320
1152.968750	5272.222656
1151.804688	5325.029297
1150.640625	5392.852051
1149.476563	5267.391602
1148.312500	5391.021484
1147.146484	5372.933594
1145.982422	5490.064453
1144.818359	5394.714355
1143.652344	5533.256348
1142.486328	5622.413086
1141.320313	5552.825684
1140.156250	5545.449707
1138.990234	5523.067871
1137.822266	5502.836914
1136.656250	5692.658203
1135.490234	5728.121582
1134.324219	5680.012207
1133.156250	5803.296875
1131.988281	5941.532227
1130.822266	5835.589844
1129.654297	5841.021973
1128.486328	5904.253418
1127.318359	5883.986816
1126.150391	6056.331055
1124.982422	5935.479980
1123.812500	6007.208984
1122.644531	6074.634766
1121.474609	6131.344727
1120.306641	6140.994629
1119.136719	6270.360840
1117.966797	6188.070313
1116.796875	6328.070313
1115.626953	6320.584473
1114.457031	6385.739258
1113.287109	6427.375488
1112.115234	6481.811035
1110.945313	6546.904297
1109.773438	6473.203125
1108.603516	6487.044922
1107.431641	6613.996582
1106.259766	6533.918945
1105.087891	6697.088867
1103.916016	6738.613281
1102.744141	6771.592285
1101.572266	6798.162598
1100.398438	6841.780273
1099.226563	6810.772949
1098.052734	6871.423828
1096.880859	6738.135254
1095.707031	6960.703613
1094.533203	6938.217285
1093.359375	7083.999512
1092.185547	7023.168457
1091.011719	7132.690430
1089.837891	7229.401855
1088.662109	7206.887695
1087.488281	7382.292480
1086.312500	7332.099121
1085.138672	7298.941895
1083.962891	7463.605469
1082.787109	7424.056152
1081.611328	7529.106445
1080.435547	7555.462402
1079.259766	7590.311035
1078.082031	7457.258301
1076.906250	7778.961914
1075.728516	7699.033691
1074.552734	7695.599121
1073.375000	7728.269531
1072.197266	7926.551270
1071.019531	8033.476074
1069.841797	8076.684082
1068.664063	7971.317383
1067.486328	8016.643066
1066.308594	7885.862793
1065.128906	8054.216797
1063.951172	8271.292969
1062.771484	8261.403320
1061.591797	8387.204102
1060.412109	8362.458008
1059.232422	8337.720703
1058.052734	8395.634766
1056.873047	8279.796875
1055.693359	8596.133789
1054.513672	8624.322266
1053.332031	8616.500000
1052.152344	8782.294922
1050.970703	8821.019531
1049.789063	8817.400391
1048.607422	8887.847656
1047.425781	8765.733398
1046.244141	8918.666992
1045.062500	9056.743164
1043.880859	8979.070313
1042.697266	8956.397461
1041.515625	9109.192383
1040.332031	8887.823242
1039.150391	9122.995117
1037.966797	9377.102539
1036.783203	9286.778320
1035.599609	9245.063477
1034.416016	9357.527344
1033.232422	9545.964844
1032.046875	9472.560547
1030.863281	9561.708008
1029.677734	9441.896484
1028.494141	9488.818359
1027.308594	9421.800781
1026.123047	9652.218750
1024.937500	9608.394531
1023.751953	9640.494141
1022.566406	9672.582031
1021.380859	9770.002930
1020.193359	9865.283203
1019.007813	9732.957031
1017.820313	9722.871094
1016.634766	9704.361328
1015.447266	9824.859375
1014.259766	9835.817383
1013.072266	9899.406250
1011.884766	9931.398438
1010.697266	9971.796875
1009.509766	9843.839844
1008.320313	10004.162109
1007.132813	9937.245117
1005.943359	9983.923828
1004.753906	10041.100586
1003.566406	9948.980469
1002.376953	10018.755859
1001.187500	10019.148438
999.998047	10036.351563
998.806641	9839.240234
997.617188	9860.668945
996.427734	9919.896484
995.236328	9848.904297
994.046875	10086.580078
992.855469	9914.818359
991.664063	9915.225586
990.472656	9867.365234
989.281250	9916.037109
988.089844	9941.616211
986.898438	9841.337891
985.705078	9818.686523
984.513672	9938.622070
983.320313	9899.190430
982.126953	9861.868164
980.935547	9749.112305
979.742188	9728.589844
978.548828	9760.448242
977.355469	9827.904297
976.162109	9790.623047
974.966797	9661.223633
973.773438	9766.343750
972.578125	9622.339844
971.384766	9606.046875
970.189453	9763.433594
968.994141	9699.001953
967.798828	9699.437500
966.603516	9467.727539
965.408203	9696.123047
964.212891	9477.037109
963.015625	9584.114258
961.820313	9540.677734
960.623047	9440.835938
959.427734	9307.599609
958.230469	9539.964844
957.033203	9519.538086
955.835938	9482.412109
954.638672	9505.845703
953.441406	9412.372070
952.244141	9460.854492
951.044922	9415.415039
949.847656	9443.015625
948.648438	9458.089844
947.449219	9293.790039
946.251953	9459.027344
945.052734	9442.815430
943.853516	9347.392578
942.654297	9295.772461
941.453125	9417.132813
940.253906	9263.424805
939.054688	9313.919922
937.853516	9287.333008
936.652344	9244.095703
935.453125	9396.591797
934.251953	9288.814453
933.050781	9266.412109
931.849609	9102.504883
930.646484	9200.821289
929.445313	9242.934570
928.244141	9091.594727
927.041016	9044.287109
925.839844	9175.813477
924.636719	8895.668945
923.433594	9052.117188
922.230469	9023.551758
921.027344	8864.091797
919.824219	8835.567383
918.621094	9020.998047
917.417969	8925.999023
916.212891	8955.617188
915.009766	8966.541016
913.804688	8786.495117
912.599609	8921.964844
911.394531	8862.337891
910.189453	8852.522461
908.984375	8714.103516
907.779297	8727.128906
906.574219	8789.916016
905.367188	8500.232422
904.162109	8583.764648
902.955078	8557.424805
901.750000	8638.845703
900.542969	8448.832031
899.335938	8466.028320
898.128906	8400.375000
896.921875	8314.035156
895.712891	8258.781250
894.505859	8263.577148
893.298828	8336.669922
892.089844	8233.844727
890.880859	8118.641113
889.673828	8003.476563
888.464844	7900.760742
887.255859	7961.444336
886.046875	8040.714844
884.835938	7888.431641
883.626953	7918.082520
882.417969	7763.805664
881.207031	7667.433105
879.998047	7657.855957
878.787109	7658.608887
877.576172	7607.734863
876.365234	7567.201172
875.154297	7367.724609
873.943359	7459.342773
872.732422	7517.910156
871.519531	7551.697754
870.308594	7519.458496
869.095703	7629.549805
867.884766	7318.905273
866.671875	7457.858887
865.458984	7310.210938
864.246094	7288.345703
863.033203	7140.776855
861.820313	7178.701660
860.605469	7115.666992
859.392578	7062.952148
858.177734	7069.978516
856.964844	6934.926758
855.750000	6952.265625
854.535156	6938.723145
853.320313	6904.604980
852.105469	6808.768555
850.890625	6877.548828
849.675781	6933.963379
848.458984	6821.717773
847.244141	6746.522461
846.027344	6784.426758
844.810547	6649.652832
843.595703	6780.043457
842.378906	6768.605957
841.162109	6722.246094
839.943359	6647.143555
838.726563	6660.379395
837.509766	6761.907227
836.291016	6645.774902
835.074219	6523.523926
833.855469	6653.755371
832.636719	6634.145020
831.417969	6514.009766
830.199219	6516.994141
828.980469	6526.130371
827.761719	6717.766113
826.542969	6679.708008
825.322266	6565.816895
824.103516	6827.031250
822.882813	6575.857422
821.664063	6664.876953
820.443359	6602.277832
819.222656	6531.506836
818.001953	6468.951660
816.779297	6598.876465
815.558594	6794.262695
814.337891	6641.637695
813.115234	6605.708008
811.894531	6721.196777
810.671875	6693.448242
809.449219	6743.431152
808.226563	6697.283203
807.003906	6784.051270
805.781250	6789.018555
804.558594	6751.061035
803.333984	6674.289063
802.111328	6581.197266
800.886719	6774.138184
799.664063	6779.101563
798.439453	6855.538574
797.214844	6780.854980
795.990234	6714.362793
794.765625	6858.127441
793.541016	6540.630859
792.314453	6708.859863
791.089844	6838.270508
789.863281	6857.491699
788.638672	6731.912109
787.412109	6906.108887
786.185547	6760.176758
784.958984	6869.082520
783.732422	6729.320313
782.505859	6960.449707
781.279297	6920.544922
780.050781	6841.952637
778.824219	6855.031250
777.595703	6882.358887
776.367188	6822.135742
775.140625	6918.666016
773.912109	6905.264648
772.683594	6883.729004
771.453125	6880.509766
770.224609	6856.951172
768.996094	6947.290039
767.765625	7000.996094
766.537109	6961.163574
765.306641	6823.774902
764.076172	7005.511719
762.845703	6829.554199
761.615234	7009.195801
760.384766	6932.831055
759.154297	7083.958984
757.921875	6940.597656
756.691406	7091.671875
755.458984	7045.792969
754.228516	7056.757324
752.996094	6988.578613
751.763672	6936.654297
750.531250	7036.884766
749.298828	7189.812988
748.066406	7042.572754
746.832031	7219.776367
745.599609	7054.337402
744.365234	7229.450684
743.132813	7252.522461
741.898438	7119.579102
740.664063	7268.255371
739.429688	7224.470703
738.195313	7115.900391
736.960938	7155.167969
735.724609	7174.178711
734.490234	7170.918457
733.255859	7230.391602
732.019531	7328.286133
730.783203	7318.931641
729.546875	7214.519531
728.310547	7286.076172
727.074219	7331.323730
725.837891	7336.125000
724.601563	7324.754395
723.363281	7287.117188
722.126953	7409.110352
720.888672	7274.504395
719.650391	7477.249023
718.414063	7201.316406
717.175781	7428.231934
715.937500	7336.107910
714.697266	7425.670898
713.458984	7396.138184
712.220703	7406.968750
710.980469	7415.778320
709.742188	7436.686523
708.501953	7582.620117
707.261719	7458.317383
706.021484	7477.190918
704.781250	7584.744141
703.541016	7591.497070
702.300781	7525.710449
701.058594	7536.499512
699.818359	7597.640137
698.576172	7499.663574
697.335938	7697.708984
696.093750	7589.682129
694.851563	7548.116211
693.609375	7560.901367
692.367188	7505.268555
691.123047	7630.716309
689.880859	7643.479492
688.638672	7652.215820
687.394531	7542.314941
686.150391	7685.762207
684.908203	7662.324707
683.664063	7805.701172
682.419922	7772.204102
681.175781	7704.564941
679.929688	7560.619629
678.685547	7784.246094
677.439453	7752.782715
676.195313	7791.596680
674.949219	7988.971680
673.703125	7857.141602
672.458984	7899.929688
671.212891	7890.540527
669.964844	7907.230957
668.718750	7982.076172
667.472656	7878.432129
666.224609	7953.255859
664.978516	7959.900391
663.730469	7944.496094
662.482422	8083.390625
661.234375	7989.834961
659.986328	7864.260742
658.738281	7874.918945
657.490234	7861.543457
656.242188	8222.562500
654.992188	7962.917480
653.744141	8001.569336
652.494141	7938.154297
651.244141	8060.825684
649.994141	8001.422363
648.744141	7918.039063
647.494141	7918.669922
646.244141	8027.263672
644.994141	7877.952148
643.742188	7880.587891
642.492188	8039.087891
641.240234	8005.730957
639.988281	8098.233887
638.738281	8094.836426
637.486328	8017.554688
636.232422	8098.026855
634.980469	8108.604004
633.728516	8075.267578
632.474609	8061.897949
631.222656	8138.315918
629.968750	8083.047852
628.714844	8049.737793
627.462891	8293.625000
626.208984	8270.258789
624.953125	8352.552734
623.699219	8291.314453
622.445313	8273.937500
621.191406	8278.483398
619.935547	8390.599609
618.679688	8494.708984
617.425781	8594.799805
616.169922	8543.536133
614.914063	8667.471680
613.658203	8719.710938
612.400391	8660.491211
611.144531	8525.685547
609.888672	8563.996094
608.630859	8854.892578
607.373047	8863.302734
606.117188	8839.897461
604.859375	8913.908203
603.601563	9101.186523
602.343750	9036.019531
601.083984	9137.773438
599.826172	9193.801758
598.568359	9412.679688
597.308594	9256.151367
596.048828	9353.825195
594.791016	9540.797852
593.531250	9713.811523
592.271484	9757.772461
591.011719	9529.888672
589.750000	9768.279297
588.490234	9732.868164
587.230469	9949.325195
585.968750	9826.652344
584.707031	9838.827148
583.447266	9916.406250
582.185547	10130.698242
580.923828	10113.091797
579.662109	10242.089844
578.398438	10273.987305
577.136719	10375.186523
575.875000	10365.467773
574.611328	10355.752930
573.347656	10439.069336
572.085938	10512.462891
570.822266	10498.768555
569.558594	10435.620117
568.292969	10671.167969
567.029297	10631.743164
565.765625	10497.421875
564.500000	10612.241211
563.236328	10626.214844
561.970703	10786.424805
560.705078	10758.868164
559.439453	10602.907227
558.173828	10766.988281
556.908203	10701.924805
555.642578	10858.032227
554.376953	10781.128906
553.109375	10720.042969
551.843750	11077.364258
550.576172	10957.051758
549.308594	10935.422852
548.041016	10929.581055
546.773438	10943.461914
545.505859	10911.986328
544.238281	11111.181641
542.968750	10963.390625
541.701172	11152.654297
540.431641	11099.487305
539.164063	11282.750000
537.894531	11284.731445
536.625000	11363.519531
535.355469	11379.268555
534.085938	11481.635742
532.814453	11398.939453
531.544922	11410.736328
530.273438	11410.723633
529.003906	11572.034180
527.732422	11457.904297
526.460938	11666.349609
525.189453	11752.809570
523.917969	11774.360352
522.646484	11933.500000
521.375000	11866.572266
520.101563	11838.966797
518.830078	12084.454102
517.556641	12013.605469
516.283203	12137.210938
515.011719	12294.155273
513.738281	12229.195313
512.462891	12327.179688
511.189453	12491.858398
509.916016	12623.121094
508.642578	12587.575195
507.367188	12585.387695
506.091797	12881.306641
504.818359	12751.611328
503.542969	12837.620117
502.267578	12853.030273
500.992188	12729.285156
499.714844	12854.442383
498.439453	12905.105469
497.164063	12979.256836
495.886719	12792.902344
494.609375	12929.707031
493.333984	13031.223633
492.056641	13007.426758
490.779297	12674.409180
489.501953	12940.286133
488.222656	12920.427734
486.945313	12927.961914
485.666016	12898.333008
484.388672	12856.981445
483.109375	12739.394531
481.830078	12645.305664
480.550781	12680.240234
479.271484	12810.912109
477.992188	12728.580078
476.712891	12638.463867
475.433594	12362.837891
474.152344	12555.958008
472.871094	12424.916992
471.591797	12440.323242
470.310547	12479.144531
469.029297	12408.675781
467.748047	12377.250977
466.466797	12248.303711
465.183594	12267.625977
463.902344	12290.840820
462.619141	12210.714844
461.337891	12146.211914
460.054688	12224.005859
458.771484	11991.938477
457.488281	11946.988281
456.205078	12176.715820
454.921875	11872.713867
453.638672	11905.698242
452.353516	11839.375977
451.070313	11926.858398
449.785156	11841.092773
448.500000	11588.005859
447.214844	11848.642578
445.929688	11897.155273
444.644531	11692.812500
443.359375	11774.392578
442.072266	11560.419922
440.787109	11641.994141
439.500000	11674.950195
438.214844	11645.710938
436.927734	11775.797852
435.640625	11530.928711
434.353516	11439.578125
433.066406	11666.725586
431.777344	11482.189453
430.490234	11635.483398
429.203125	11427.725586
427.914063	11466.484375
426.625000	11516.871094
425.335938	11573.058594
424.046875	11392.608398
422.757813	11522.485352
421.468750	11322.716797
420.179688	11392.466797
418.888672	11551.346680
417.599609	11402.059570
416.308594	11237.324219
415.017578	11334.159180
413.728516	11425.148438
412.437500	11390.236328
411.144531	11167.533203
409.853516	11359.163086
408.562500	11244.926758
407.269531	11113.313477
405.978516	11213.917969
404.685547	11061.076172
403.392578	11262.226563
402.099609	10960.530273
400.806641	10869.680664
399.513672	10842.654297
398.220703	11192.521484
396.927734	10887.181641
395.632813	11105.537109
394.337891	10838.952148
393.044922	10997.367188
391.750000	10823.583008
390.455078	11001.251953
389.160156	10883.508789
387.865234	10850.728516
386.568359	10912.514648
385.273438	10850.799805
383.976563	10858.550781
382.681641	10793.007813
381.384766	10683.134766
380.087891	10839.368164
378.791016	10748.801758
377.494141	10852.929688
376.197266	10762.391602
374.898438	10708.492188
373.601563	10797.160156
372.302734	10777.940430
371.005859	10714.436523
369.707031	10550.836914
368.408203	10862.769531
367.109375	10768.488281
365.810547	10566.477539
364.509766	10853.229492
363.210938	10945.592773
361.910156	10787.891602
360.611328	10720.625977
359.310547	10749.514648
358.009766	10751.481445
356.708984	10849.544922
355.408203	10868.787109
354.107422	11041.726563
352.804688	10903.408203
351.503906	10705.597656
350.201172	11026.335938
348.900391	10842.012695
347.597656	10890.027344
346.294922	10749.935547
344.992188	10721.190430
343.689453	10711.641602
342.386719	10684.831055
341.082031	10757.762695
339.779297	10698.353516
338.474609	10619.791992
337.169922	10683.111328
335.867188	10577.746094
334.562500	10985.977539
333.257813	10794.378906
331.951172	10857.621094
330.646484	10767.620117
329.341797	10534.030273
328.035156	10913.191406
326.728516	10687.314453
325.423828	10765.829102
324.117188	10618.512695
322.810547	10637.701172
321.503906	10427.331055
320.195313	10494.359375
318.888672	10515.469727
317.580078	10523.189453
316.273438	10532.817383
314.964844	10320.736328
313.656250	10349.504883
312.347656	10389.725586
311.039063	10519.713867
309.730469	10347.890625
308.421875	10561.861328
307.111328	10567.649414
305.802734	10481.806641
304.492188	10529.594727
303.181641	10674.685547
301.871094	10480.118164
300.560547	10525.971680
299.250000	10590.881836
297.939453	10531.820313
296.628906	10438.459961
295.316406	10552.912109
294.005859	10480.544922
292.693359	10505.387695
291.380859	10758.848633
290.068359	10564.568359
288.755859	10566.527344
287.443359	10642.749023
286.130859	10696.097656
284.816406	10713.258789
283.503906	10496.316406
282.189453	10629.583008
280.875000	10604.889648
279.560547	10551.670898
278.246094	10380.552734
276.931641	10601.215820
275.617188	10614.567383
274.300781	10510.058594
272.986328	10559.531250
271.669922	10764.805664
270.355469	10607.126953
269.039063	10590.070313
267.722656	10563.523438
266.406250	10631.930664
265.089844	10793.342773
263.771484	10594.034180
262.455078	10556.116211
261.136719	10688.992188
259.820313	10687.117188
258.501953	10708.005859
257.183594	10772.507813
255.865234	10844.571289
254.546875	10668.246094
253.228516	10874.886719
251.908203	10636.074219
250.589844	10685.370117
249.269531	10916.528320
247.949219	10819.900391
246.628906	10717.625000
245.310547	10963.802734
243.988281	10927.799805
242.667969	10990.241211
241.347656	10995.882813
240.025391	11154.793945
238.705078	11249.323242
237.382813	11169.793945
236.060547	11109.204102
234.738281	11065.654297
233.416016	11137.444336
232.093750	11141.159180
230.771484	11173.221680
229.449219	11150.474609
228.125000	11106.953125
226.800781	11035.112305
225.478516	11046.394531
224.154297	11157.750000
222.830078	11131.247070
221.505859	11114.191406
220.181641	11193.391602
218.855469	11300.868164
217.531250	11361.140625
216.205078	11189.379883
214.878906	11281.710938
213.554688	11226.931641
212.228516	11349.387695
210.902344	11153.244141
209.574219	11149.399414
208.248047	11415.008789
206.921875	11173.740234
205.593750	11222.634766
204.265625	11335.542969
202.939453	11265.763672
201.611328	11581.948242
200.283203	11410.504883
198.955078	11336.984375
197.625000	11517.510742
196.296875	11506.079102
194.968750	11583.056641
193.638672	11701.381836
192.308594	11417.276367
190.978516	11721.707031
189.648438	11730.922852
188.318359	11941.223633
186.988281	11833.899414
185.658203	11801.759766
184.326172	11955.585938
182.996094	11938.458984
181.664063	11880.028320
180.332031	11996.210938
179.000000	12136.752930
177.667969	12196.548828
176.335938	12117.472656
175.003906	12120.967773
173.669922	12176.981445
172.337891	12204.844727
171.003906	12290.823242
169.669922	12247.416992
168.335938	12359.597656
167.001953	12301.201172
165.667969	12278.424805
164.333984	12246.290039
163.000000	12187.942383
161.664063	12168.942383
160.328125	11994.540039
158.994141	12325.655273
157.658203	12357.175781
156.322266	12448.570313
154.986328	12526.833984
153.650391	12520.886719
152.312500	12477.533203
150.976563	12505.256836
149.638672	12525.491211
148.302734	12416.727539
146.964844	12719.203125
145.626953	12692.668945
144.289063	12718.458984
142.949219	12718.086914
141.611328	12788.689453
140.273438	12975.048828
138.933594	13191.215820
137.595703	13295.298828
136.255859	13233.229492
134.916016	13368.991211
133.576172	13260.284180
132.236328	13640.370117
130.894531	13544.708008
129.554688	13670.993164
128.212891	13521.289063
126.873047	13558.052734
125.531250	13682.403320
124.189453	13694.899414
122.847656	13740.926758
121.505859	13803.704102
120.164063	13832.932617
118.820313	13871.461914
117.478516	13878.325195
116.134766	13829.338867
114.792969	13648.224609
113.449219	13843.070313
112.105469	13641.549805
110.761719	13776.799805
109.417969	13936.180664
108.072266	14147.572266
106.728516	14297.534180
105.382813	14194.629883
104.039063	14089.904297
102.693359	14083.701172
101.347656	14083.074219
100.001953	14229.196289
98.654297	14287.975586
97.308594	14183.322266
95.962891	14429.605469
94.615234	14501.309570
93.269531	14509.885742
91.921875	14594.540039
90.574219	14822.020508
89.226563	14784.160156
87.878906	14152.824219
86.529297	14623.176758
85.181641	14967.291992
83.832031	14786.697266
82.484375	15121.393555
81.134766	14798.152344
79.785156	14682.525391
78.435547	14603.985352
77.085938	14658.819336
75.736328	14798.811523
74.384766	14738.804688
73.035156	14634.393555
71.683594	14750.254883
70.332031	14229.538086
68.982422	14334.328125
67.630859	14161.619141
66.279297	14075.893555
64.925781	13927.328125
63.574219	13584.695313
62.220703	13515.750977
60.869141	13820.148438
59.515625	13485.104492
58.162109	13100.298828
56.808594	12390.533203
55.455078	11976.505859
54.101563	11664.180664
52.748047	11207.966797
51.392578	10936.495117
